time,LT
0,314
0.001,321
0.002,329
0.003,335
0.004,339
0.005,334
0.006,331
0.007,324
0.008,323
0.009,319
0.01,315
0.011,313
0.012,313
0.013,315
0.014,315
0.015,315
0.016,315
0.017,316
0.018,320
0.019,317
0.02,314
0.021,313
0.022,313
0.023,315
0.024,317
0.025,319
0.026,318
0.027,321
0.028,324
0.029,325
0.03,326
0.031,329
0.032,331
0.033,335
0.034,336
0.035,332
0.036,328
0.037,325
0.038,322
0.039,320
0.04,315
0.041,316
0.042,320
0.043,322
0.044,320
0.045,321
0.046,322
0.047,322
0.048,321
0.049,322
0.05,322
0.051,324
0.052,325
0.053,332
0.054,336
0.055,336
0.056,339
0.057,340
0.058,336
0.059,333
0.06,329
0.061,326
0.062,325
0.063,322
0.064,319
0.065,319
0.066,322
0.067,327
0.068,324
0.069,320
0.07,314
0.071,313
0.072,309
0.073,308
0.074,307
0.075,310
0.076,314
0.077,317
0.078,318
0.079,320
0.08,320
0.081,321
0.082,322
0.083,323
0.084,323
0.085,322
0.086,321
0.087,320
0.088,321
0.089,321
0.09,323
0.091,325
0.092,325
0.093,325
0.094,328
0.095,327
0.096,325
0.097,326
0.098,328
0.099,326
0.1,324
0.101,326
0.102,325
0.103,323
0.104,323
0.105,323
0.106,326
0.107,327
0.108,322
0.109,321
0.11,326
0.111,333
0.112,336
0.113,336
0.114,331
0.115,326
0.116,326
0.117,331
0.118,331
0.119,328
0.12,324
0.121,320
0.122,318
0.123,319
0.124,317
0.125,315
0.126,314
0.127,314
0.128,314
0.129,315
0.13,314
0.131,317
0.132,317
0.133,319
0.134,318
0.135,322
0.136,328
0.137,334
0.138,340
0.139,339
0.14,334
0.141,328
0.142,325
0.143,323
0.144,323
0.145,321
0.146,320
0.147,319
0.148,316
0.149,319
0.15,319
0.151,320
0.152,323
0.153,323
0.154,322
0.155,322
0.156,321
0.157,321
0.158,321
0.159,320
0.16,318
0.161,320
0.162,324
0.163,325
0.164,325
0.165,325
0.166,324
0.167,325
0.168,321
0.169,322
0.17,324
0.171,322
0.172,323
0.173,327
0.174,328
0.175,330
0.176,327
0.177,327
0.178,323
0.179,326
0.18,330
0.181,334
0.182,330
0.183,329
0.184,330
0.185,328
0.186,328
0.187,324
0.188,322
0.189,318
0.19,320
0.191,319
0.192,318
0.193,321
0.194,322
0.195,324
0.196,320
0.197,316
0.198,315
0.199,315
0.2,316
0.201,315
0.202,315
0.203,318
0.204,320
0.205,321
0.206,323
0.207,323
0.208,325
0.209,325
0.21,329
0.211,332
0.212,330
0.213,327
0.214,326
0.215,326
0.216,324
0.217,320
0.218,317
0.219,317
0.22,321
0.221,323
0.222,326
0.223,328
0.224,333
0.225,335
0.226,330
0.227,327
0.228,324
0.229,320
0.23,317
0.231,319
0.232,324
0.233,324
0.234,325
0.235,330
0.236,330
0.237,329
0.238,327
0.239,320
0.24,319
0.241,323
0.242,328
0.243,331
0.244,328
0.245,328
0.246,324
0.247,328
0.248,328
0.249,330
0.25,324
0.251,317
0.252,324
0.253,326
0.254,318
0.255,317
0.256,312
0.257,314
0.258,318
0.259,325
0.26,327
0.261,323
0.262,320
0.263,319
0.264,321
0.265,315
0.266,309
0.267,309
0.268,311
0.269,316
0.27,321
0.271,321
0.272,321
0.273,324
0.274,326
0.275,323
0.276,322
0.277,321
0.278,320
0.279,319
0.28,320
0.281,324
0.282,326
0.283,325
0.284,325
0.285,324
0.286,324
0.287,324
0.288,321
0.289,321
0.29,322
0.291,322
0.292,324
0.293,326
0.294,331
0.295,334
0.296,336
0.297,338
0.298,343
0.299,344
0.3,342
0.301,338
0.302,333
0.303,331
0.304,326
0.305,320
0.306,314
0.307,313
0.308,311
0.309,310
0.31,311
0.311,308
0.312,310
0.313,313
0.314,321
0.315,332
0.316,339
0.317,343
0.318,338
0.319,327
0.32,320
0.321,315
0.322,310
0.323,309
0.324,310
0.325,315
0.326,319
0.327,320
0.328,315
0.329,312
0.33,311
0.331,313
0.332,315
0.333,319
0.334,323
0.335,325
0.336,326
0.337,328
0.338,334
0.339,338
0.34,340
0.341,336
0.342,335
0.343,330
0.344,326
0.345,323
0.346,319
0.347,312
0.348,308
0.349,311
0.35,313
0.351,316
0.352,317
0.353,317
0.354,319
0.355,320
0.356,322
0.357,320
0.358,324
0.359,327
0.36,324
0.361,325
0.362,326
0.363,325
0.364,327
0.365,324
0.366,322
0.367,327
0.368,327
0.369,327
0.37,328
0.371,330
0.372,340
0.373,346
0.374,344
0.375,337
0.376,330
0.377,325
0.378,323
0.379,319
0.38,312
0.381,308
0.382,312
0.383,315
0.384,317
0.385,313
0.386,312
0.387,313
0.388,313
0.389,318
0.39,325
0.391,330
0.392,335
0.393,336
0.394,335
0.395,331
0.396,325
0.397,321
0.398,319
0.399,318
0.4,319
0.401,319
0.402,319
0.403,318
0.404,319
0.405,317
0.406,316
0.407,317
0.408,322
0.409,325
0.41,328
0.411,335
0.412,335
0.413,335
0.414,337
0.415,336
0.416,335
0.417,334
0.418,329
0.419,322
0.42,319
0.421,320
0.422,312
0.423,312
0.424,313
0.425,311
0.426,312
0.427,314
0.428,310
0.429,311
0.43,315
0.431,318
0.432,322
0.433,328
0.434,329
0.435,326
0.436,326
0.437,329
0.438,325
0.439,322
0.44,325
0.441,326
0.442,325
0.443,326
0.444,326
0.445,325
0.446,323
0.447,322
0.448,323
0.449,325
0.45,327
0.451,328
0.452,329
0.453,328
0.454,330
0.455,329
0.456,330
0.457,329
0.458,329
0.459,326
0.46,324
0.461,323
0.462,323
0.463,322
0.464,325
0.465,325
0.466,328
0.467,329
0.468,320
0.469,317
0.47,327
0.471,326
0.472,324
0.473,321
0.474,322
0.475,322
0.476,323
0.477,324
0.478,320
0.479,322
0.48,322
0.481,322
0.482,323
0.483,320
0.484,320
0.485,321
0.486,323
0.487,323
0.488,321
0.489,323
0.49,322
0.491,320
0.492,321
0.493,323
0.494,325
0.495,325
0.496,322
0.497,321
0.498,322
0.499,326
0.5,327
0.501,326
0.502,329
0.503,325
0.504,322
0.505,323
0.506,324
0.507,322
0.508,325
0.509,326
0.51,318
0.511,320
0.512,324
0.513,324
0.514,324
0.515,323
0.516,321
0.517,323
0.518,325
0.519,326
0.52,322
0.521,326
0.522,325
0.523,319
0.524,319
0.525,321
0.526,323
0.527,322
0.528,321
0.529,325
0.53,325
0.531,326
0.532,324
0.533,321
0.534,321
0.535,323
0.536,323
0.537,326
0.538,323
0.539,323
0.54,325
0.541,324
0.542,322
0.543,325
0.544,324
0.545,323
0.546,321
0.547,323
0.548,320
0.549,320
0.55,325
0.551,324
0.552,324
0.553,325
0.554,328
0.555,330
0.556,330
0.557,330
0.558,329
0.559,331
0.56,331
0.561,331
0.562,330
0.563,328
0.564,326
0.565,323
0.566,320
0.567,320
0.568,320
0.569,319
0.57,316
0.571,312
0.572,313
0.573,315
0.574,315
0.575,317
0.576,319
0.577,317
0.578,321
0.579,322
0.58,321
0.581,321
0.582,326
0.583,325
0.584,326
0.585,329
0.586,325
0.587,322
0.588,319
0.589,318
0.59,324
0.591,328
0.592,326
0.593,322
0.594,323
0.595,325
0.596,327
0.597,326
0.598,323
0.599,326
0.6,324
0.601,321
0.602,324
0.603,329
0.604,324
0.605,324
0.606,329
0.607,335
0.608,337
0.609,332
0.61,331
0.611,328
0.612,323
0.613,321
0.614,321
0.615,320
0.616,317
0.617,317
0.618,314
0.619,315
0.62,317
0.621,317
0.622,318
0.623,322
0.624,321
0.625,320
0.626,317
0.627,319
0.628,318
0.629,323
0.63,323
0.631,327
0.632,329
0.633,326
0.634,326
0.635,328
0.636,327
0.637,326
0.638,327
0.639,330
0.64,325
0.641,322
0.642,321
0.643,318
0.644,320
0.645,322
0.646,322
0.647,322
0.648,322
0.649,320
0.65,320
0.651,320
0.652,324
0.653,322
0.654,321
0.655,321
0.656,320
0.657,322
0.658,323
0.659,323
0.66,323
0.661,324
0.662,325
0.663,326
0.664,330
0.665,330
0.666,332
0.667,330
0.668,330
0.669,326
0.67,326
0.671,322
0.672,320
0.673,322
0.674,325
0.675,323
0.676,319
0.677,318
0.678,321
0.679,319
0.68,318
0.681,320
0.682,321
0.683,319
0.684,320
0.685,321
0.686,323
0.687,325
0.688,326
0.689,326
0.69,322
0.691,318
0.692,320
0.693,325
0.694,325
0.695,322
0.696,321
0.697,322
0.698,324
0.699,324
0.7,329
0.701,324
0.702,330
0.703,331
0.704,327
0.705,331
0.706,324
0.707,322
0.708,322
0.709,320
0.71,322
0.711,326
0.712,324
0.713,322
0.714,318
0.715,320
0.716,319
0.717,320
0.718,320
0.719,319
0.72,320
0.721,323
0.722,326
0.723,328
0.724,330
0.725,328
0.726,329
0.727,325
0.728,327
0.729,326
0.73,324
0.731,322
0.732,324
0.733,322
0.734,322
0.735,322
0.736,321
0.737,319
0.738,319
0.739,319
0.74,319
0.741,318
0.742,318
0.743,319
0.744,323
0.745,321
0.746,323
0.747,324
0.748,324
0.749,323
0.75,322
0.751,322
0.752,324
0.753,324
0.754,323
0.755,323
0.756,323
0.757,325
0.758,323
0.759,321
0.76,324
0.761,323
0.762,329
0.763,329
0.764,326
0.765,323
0.766,327
0.767,328
0.768,326
0.769,327
0.77,322
0.771,317
0.772,320
0.773,320
0.774,321
0.775,321
0.776,323
0.777,324
0.778,323
0.779,322
0.78,322
0.781,321
0.782,321
0.783,322
0.784,325
0.785,328
0.786,327
0.787,323
0.788,325
0.789,325
0.79,329
0.791,328
0.792,324
0.793,325
0.794,323
0.795,324
0.796,321
0.797,322
0.798,321
0.799,320
0.8,319
0.801,320
0.802,321
0.803,321
0.804,319
0.805,321
0.806,323
0.807,326
0.808,326
0.809,322
0.81,320
0.811,323
0.812,325
0.813,325
0.814,324
0.815,325
0.816,324
0.817,324
0.818,325
0.819,325
0.82,325
0.821,324
0.822,325
0.823,322
0.824,321
0.825,322
0.826,321
0.827,321
0.828,323
0.829,321
0.83,321
0.831,324
0.832,324
0.833,320
0.834,325
0.835,330
0.836,329
0.837,322
0.838,324
0.839,323
0.84,324
0.841,323
0.842,323
0.843,325
0.844,326
0.845,325
0.846,327
0.847,326
0.848,325
0.849,323
0.85,325
0.851,324
0.852,324
0.853,323
0.854,324
0.855,324
0.856,324
0.857,322
0.858,320
0.859,326
0.86,322
0.861,321
0.862,321
0.863,321
0.864,323
0.865,323
0.866,321
0.867,319
0.868,321
0.869,320
0.87,320
0.871,321
0.872,321
0.873,322
0.874,322
0.875,321
0.876,322
0.877,321
0.878,320
0.879,323
0.88,324
0.881,327
0.882,326
0.883,322
0.884,320
0.885,323
0.886,323
0.887,323
0.888,323
0.889,324
0.89,323
0.891,323
0.892,324
0.893,326
0.894,323
0.895,324
0.896,322
0.897,324
0.898,322
0.899,322
0.9,321
0.901,324
0.902,325
0.903,325
0.904,324
0.905,325
0.906,324
0.907,321
0.908,323
0.909,322
0.91,325
0.911,326
0.912,324
0.913,323
0.914,322
0.915,320
0.916,324
0.917,327
0.918,325
0.919,322
0.92,321
0.921,327
0.922,328
0.923,325
0.924,323
0.925,325
0.926,325
0.927,325
0.928,324
0.929,325
0.93,322
0.931,322
0.932,323
0.933,323
0.934,320
0.935,325
0.936,327
0.937,326
0.938,328
0.939,326
0.94,325
0.941,328
0.942,331
0.943,331
0.944,326
0.945,323
0.946,323
0.947,321
0.948,321
0.949,320
0.95,320
0.951,320
0.952,320
0.953,319
0.954,320
0.955,319
0.956,320
0.957,317
0.958,318
0.959,319
0.96,320
0.961,324
0.962,321
0.963,324
0.964,324
0.965,323
0.966,320
0.967,322
0.968,320
0.969,324
0.97,322
0.971,322
0.972,323
0.973,323
0.974,321
0.975,321
0.976,321
0.977,324
0.978,323
0.979,324
0.98,325
0.981,327
0.982,325
0.983,326
0.984,326
0.985,327
0.986,325
0.987,324
0.988,323
0.989,324
0.99,324
0.991,326
0.992,327
0.993,324
0.994,324
0.995,326
0.996,322
0.997,322
0.998,326
0.999,325
1,324
1.001,324
1.002,324
1.003,325
1.004,324
1.005,325
1.006,322
1.007,322
1.008,322
1.009,320
1.01,320
1.011,323
1.012,322
1.013,321
1.014,321
1.015,321
1.016,319
1.017,322
1.018,323
1.019,321
1.02,322
1.021,324
1.022,321
1.023,323
1.024,325
1.025,327
1.026,327
1.027,317
1.028,321
1.029,325
1.03,325
1.031,326
1.032,325
1.033,327
1.034,324
1.035,323
1.036,323
1.037,322
1.038,322
1.039,321
1.04,320
1.041,320
1.042,322
1.043,321
1.044,321
1.045,321
1.046,320
1.047,322
1.048,323
1.049,321
1.05,320
1.051,326
1.052,326
1.053,323
1.054,321
1.055,326
1.056,321
1.057,324
1.058,324
1.059,324
1.06,326
1.061,329
1.062,329
1.063,325
1.064,324
1.065,322
1.066,321
1.067,321
1.068,322
1.069,321
1.07,323
1.071,323
1.072,324
1.073,323
1.074,322
1.075,324
1.076,322
1.077,323
1.078,323
1.079,327
1.08,327
1.081,325
1.082,325
1.083,325
1.084,324
1.085,322
1.086,322
1.087,326
1.088,323
1.089,323
1.09,319
1.091,321
1.092,324
1.093,322
1.094,324
1.095,322
1.096,322
1.097,323
1.098,321
1.099,321
1.1,322
1.101,322
1.102,326
1.103,322
1.104,323
1.105,323
1.106,323
1.107,320
1.108,321
1.109,326
1.11,328
1.111,321
1.112,325
1.113,325
1.114,320
1.115,320
1.116,324
1.117,323
1.118,323
1.119,323
1.12,325
1.121,323
1.122,323
1.123,323
1.124,321
1.125,324
1.126,322
1.127,325
1.128,325
1.129,325
1.13,324
1.131,325
1.132,324
1.133,325
1.134,327
1.135,324
1.136,327
1.137,328
1.138,326
1.139,325
1.14,327
1.141,325
1.142,322
1.143,321
1.144,323
1.145,324
1.146,324
1.147,323
1.148,324
1.149,325
1.15,324
1.151,323
1.152,321
1.153,320
1.154,322
1.155,329
1.156,326
1.157,319
1.158,324
1.159,326
1.16,324
1.161,326
1.162,325
1.163,323
1.164,323
1.165,324
1.166,325
1.167,324
1.168,324
1.169,324
1.17,322
1.171,321
1.172,320
1.173,321
1.174,323
1.175,323
1.176,320
1.177,322
1.178,322
1.179,322
1.18,322
1.181,324
1.182,322
1.183,322
1.184,325
1.185,323
1.186,322
1.187,322
1.188,323
1.189,317
1.19,320
1.191,326
1.192,326
1.193,322
1.194,319
1.195,316
1.196,322
1.197,322
1.198,322
1.199,322
1.2,322
1.201,322
1.202,320
1.203,321
1.204,321
1.205,322
1.206,323
1.207,324
1.208,324
1.209,324
1.21,323
1.211,323
1.212,323
1.213,322
1.214,324
1.215,323
1.216,323
1.217,323
1.218,324
1.219,323
1.22,324
1.221,324
1.222,324
1.223,324
1.224,322
1.225,324
1.226,323
1.227,323
1.228,323
1.229,323
1.23,325
1.231,326
1.232,324
1.233,323
1.234,324
1.235,323
1.236,322
1.237,324
1.238,325
1.239,327
1.24,325
1.241,323
1.242,325
1.243,325
1.244,324
1.245,324
1.246,323
1.247,323
1.248,323
1.249,322
1.25,324
1.251,324
1.252,323
1.253,323
1.254,320
1.255,321
1.256,324
1.257,328
1.258,327
1.259,323
1.26,319
1.261,319
1.262,324
1.263,323
1.264,329
1.265,324
1.266,322
1.267,322
1.268,325
1.269,322
1.27,323
1.271,321
1.272,321
1.273,321
1.274,321
1.275,322
1.276,324
1.277,324
1.278,322
1.279,322
1.28,322
1.281,321
1.282,322
1.283,324
1.284,322
1.285,321
1.286,324
1.287,325
1.288,324
1.289,322
1.29,323
1.291,322
1.292,323
1.293,323
1.294,324
1.295,324
1.296,324
1.297,322
1.298,323
1.299,323
1.3,323
1.301,324
1.302,323
1.303,324
1.304,323
1.305,323
1.306,323
1.307,324
1.308,323
1.309,322
1.31,322
1.311,322
1.312,324
1.313,323
1.314,322
1.315,322
1.316,324
1.317,323
1.318,323
1.319,323
1.32,322
1.321,323
1.322,322
1.323,322
1.324,324
1.325,323
1.326,322
1.327,323
1.328,326
1.329,324
1.33,322
1.331,322
1.332,322
1.333,325
1.334,325
1.335,326
1.336,326
1.337,324
1.338,322
1.339,325
1.34,324
1.341,326
1.342,328
1.343,324
1.344,324
1.345,328
1.346,328
1.347,324
1.348,322
1.349,322
1.35,323
1.351,325
1.352,320
1.353,321
1.354,320
1.355,322
1.356,324
1.357,322
1.358,324
1.359,320
1.36,323
1.361,325
1.362,325
1.363,317
1.364,320
1.365,324
1.366,323
1.367,320
1.368,325
1.369,322
1.37,322
1.371,321
1.372,319
1.373,320
1.374,321
1.375,323
1.376,322
1.377,322
1.378,323
1.379,321
1.38,322
1.381,322
1.382,323
1.383,323
1.384,323
1.385,323
1.386,324
1.387,323
1.388,324
1.389,322
1.39,323
1.391,323
1.392,323
1.393,322
1.394,323
1.395,321
1.396,322
1.397,323
1.398,322
1.399,322
1.4,324
1.401,324
1.402,323
1.403,323
1.404,323
1.405,325
1.406,323
1.407,324
1.408,322
1.409,322
1.41,322
1.411,325
1.412,325
1.413,326
1.414,330
1.415,330
1.416,325
1.417,326
1.418,321
1.419,322
1.42,328
1.421,328
1.422,325
1.423,326
1.424,321
1.425,322
1.426,321
1.427,320
1.428,321
1.429,320
1.43,321
1.431,323
1.432,325
1.433,323
1.434,322
1.435,323
1.436,324
1.437,322
1.438,323
1.439,323
1.44,321
1.441,321
1.442,321
1.443,322
1.444,320
1.445,318
1.446,316
1.447,320
1.448,320
1.449,318
1.45,321
1.451,319
1.452,322
1.453,321
1.454,321
1.455,322
1.456,325
1.457,326
1.458,326
1.459,325
1.46,325
1.461,324
1.462,324
1.463,325
1.464,323
1.465,325
1.466,324
1.467,324
1.468,324
1.469,321
1.47,324
1.471,322
1.472,322
1.473,321
1.474,322
1.475,322
1.476,322
1.477,323
1.478,323
1.479,324
1.48,325
1.481,322
1.482,322
1.483,324
1.484,323
1.485,325
1.486,324
1.487,325
1.488,325
1.489,325
1.49,325
1.491,325
1.492,325
1.493,325
1.494,324
1.495,324
1.496,323
1.497,324
1.498,324
1.499,326
1.5,325
1.501,325
1.502,324
1.503,324
1.504,323
1.505,325
1.506,325
1.507,325
1.508,324
1.509,324
1.51,323
1.511,324
1.512,323
1.513,321
1.514,321
1.515,318
1.516,321
1.517,320
1.518,317
1.519,321
1.52,319
1.521,320
1.522,325
1.523,326
1.524,324
1.525,324
1.526,323
1.527,324
1.528,323
1.529,322
1.53,324
1.531,323
1.532,322
1.533,322
1.534,321
1.535,322
1.536,323
1.537,322
1.538,321
1.539,320
1.54,322
1.541,321
1.542,322
1.543,323
1.544,323
1.545,324
1.546,325
1.547,325
1.548,325
1.549,324
1.55,324
1.551,324
1.552,326
1.553,326
1.554,326
1.555,326
1.556,327
1.557,325
1.558,320
1.559,327
1.56,324
1.561,322
1.562,322
1.563,324
1.564,324
1.565,324
1.566,324
1.567,323
1.568,322
1.569,322
1.57,324
1.571,326
1.572,325
1.573,321
1.574,320
1.575,321
1.576,324
1.577,326
1.578,325
1.579,324
1.58,322
1.581,323
1.582,325
1.583,326
1.584,327
1.585,326
1.586,323
1.587,323
1.588,323
1.589,325
1.59,325
1.591,323
1.592,324
1.593,322
1.594,317
1.595,323
1.596,324
1.597,325
1.598,324
1.599,322
1.6,322
1.601,321
1.602,321
1.603,324
1.604,320
1.605,322
1.606,322
1.607,323
1.608,322
1.609,322
1.61,323
1.611,324
1.612,324
1.613,324
1.614,324
1.615,326
1.616,324
1.617,323
1.618,322
1.619,321
1.62,323
1.621,324
1.622,326
1.623,324
1.624,323
1.625,323
1.626,325
1.627,324
1.628,322
1.629,321
1.63,322
1.631,320
1.632,318
1.633,323
1.634,325
1.635,322
1.636,324
1.637,324
1.638,323
1.639,323
1.64,323
1.641,324
1.642,325
1.643,325
1.644,324
1.645,324
1.646,323
1.647,324
1.648,324
1.649,326
1.65,324
1.651,326
1.652,324
1.653,323
1.654,325
1.655,321
1.656,322
1.657,324
1.658,324
1.659,324
1.66,323
1.661,323
1.662,324
1.663,325
1.664,322
1.665,324
1.666,325
1.667,326
1.668,326
1.669,319
1.67,319
1.671,320
1.672,322
1.673,321
1.674,324
1.675,324
1.676,322
1.677,320
1.678,321
1.679,321
1.68,320
1.681,322
1.682,321
1.683,322
1.684,323
1.685,322
1.686,322
1.687,322
1.688,323
1.689,327
1.69,326
1.691,327
1.692,323
1.693,321
1.694,322
1.695,322
1.696,324
1.697,322
1.698,323
1.699,321
1.7,322
1.701,324
1.702,324
1.703,325
1.704,325
1.705,322
1.706,324
1.707,327
1.708,326
1.709,321
1.71,324
1.711,324
1.712,323
1.713,323
1.714,322
1.715,325
1.716,324
1.717,325
1.718,325
1.719,325
1.72,325
1.721,325
1.722,324
1.723,323
1.724,322
1.725,324
1.726,326
1.727,323
1.728,324
1.729,324
1.73,324
1.731,324
1.732,322
1.733,321
1.734,324
1.735,321
1.736,324
1.737,323
1.738,321
1.739,322
1.74,323
1.741,324
1.742,324
1.743,322
1.744,324
1.745,325
1.746,325
1.747,322
1.748,324
1.749,321
1.75,326
1.751,326
1.752,322
1.753,321
1.754,324
1.755,323
1.756,321
1.757,321
1.758,319
1.759,317
1.76,320
1.761,320
1.762,322
1.763,321
1.764,320
1.765,320
1.766,322
1.767,321
1.768,322
1.769,322
1.77,323
1.771,324
1.772,324
1.773,325
1.774,327
1.775,326
1.776,327
1.777,326
1.778,326
1.779,326
1.78,326
1.781,325
1.782,326
1.783,327
1.784,325
1.785,327
1.786,326
1.787,326
1.788,326
1.789,324
1.79,327
1.791,325
1.792,328
1.793,325
1.794,321
1.795,322
1.796,324
1.797,325
1.798,324
1.799,324
1.8,322
1.801,322
1.802,322
1.803,324
1.804,325
1.805,325
1.806,325
1.807,326
1.808,324
1.809,322
1.81,323
1.811,321
1.812,325
1.813,325
1.814,323
1.815,323
1.816,321
1.817,322
1.818,323
1.819,321
1.82,323
1.821,322
1.822,322
1.823,321
1.824,321
1.825,322
1.826,321
1.827,321
1.828,321
1.829,321
1.83,321
1.831,320
1.832,322
1.833,324
1.834,320
1.835,321
1.836,321
1.837,320
1.838,321
1.839,322
1.84,322
1.841,322
1.842,323
1.843,324
1.844,324
1.845,323
1.846,324
1.847,324
1.848,324
1.849,323
1.85,326
1.851,324
1.852,328
1.853,325
1.854,328
1.855,324
1.856,323
1.857,326
1.858,324
1.859,325
1.86,323
1.861,323
1.862,322
1.863,322
1.864,324
1.865,322
1.866,321
1.867,320
1.868,322
1.869,322
1.87,321
1.871,322
1.872,322
1.873,324
1.874,325
1.875,323
1.876,325
1.877,327
1.878,325
1.879,325
1.88,326
1.881,325
1.882,323
1.883,323
1.884,326
1.885,328
1.886,328
1.887,329
1.888,323
1.889,325
1.89,329
1.891,325
1.892,321
1.893,323
1.894,320
1.895,323
1.896,319
1.897,319
1.898,321
1.899,322
1.9,320
1.901,319
1.902,319
1.903,319
1.904,320
1.905,319
1.906,321
1.907,321
1.908,323
1.909,326
1.91,324
1.911,326
1.912,323
1.913,323
1.914,323
1.915,325
1.916,326
1.917,325
1.918,322
1.919,323
1.92,322
1.921,323
1.922,323
1.923,323
1.924,323
1.925,323
1.926,322
1.927,324
1.928,321
1.929,322
1.93,323
1.931,325
1.932,323
1.933,322
1.934,327
1.935,326
1.936,324
1.937,324
1.938,323
1.939,327
1.94,324
1.941,325
1.942,326
1.943,325
1.944,325
1.945,323
1.946,323
1.947,323
1.948,323
1.949,322
1.95,323
1.951,324
1.952,323
1.953,322
1.954,325
1.955,325
1.956,322
1.957,322
1.958,323
1.959,324
1.96,325
1.961,324
1.962,324
1.963,327
1.964,326
1.965,329
1.966,329
1.967,327
1.968,326
1.969,324
1.97,324
1.971,321
1.972,320
1.973,320
1.974,320
1.975,319
1.976,319
1.977,320
1.978,321
1.979,320
1.98,320
1.981,321
1.982,321
1.983,322
1.984,320
1.985,318
1.986,319
1.987,323
1.988,326
1.989,323
1.99,323
1.991,321
1.992,324
1.993,326
1.994,325
1.995,324
1.996,322
1.997,321
1.998,322
1.999,322
2,322
2.001,323
2.002,324
2.003,324
2.004,324
2.005,324
2.006,324
2.007,324
2.008,325
2.009,324
2.01,327
2.011,325
2.012,324
2.013,324
2.014,325
2.015,325
2.016,325
2.017,325
2.018,324
2.019,324
2.02,322
2.021,323
2.022,325
2.023,325
2.024,322
2.025,322
2.026,321
2.027,324
2.028,323
2.029,320
2.03,320
2.031,322
2.032,325
2.033,322
2.034,322
2.035,325
2.036,324
2.037,325
2.038,326
2.039,324
2.04,324
2.041,325
2.042,323
2.043,323
2.044,324
2.045,325
2.046,325
2.047,324
2.048,324
2.049,322
2.05,322
2.051,320
2.052,318
2.053,320
2.054,321
2.055,321
2.056,322
2.057,323
2.058,323
2.059,322
2.06,322
2.061,321
2.062,324
2.063,324
2.064,323
2.065,325
2.066,325
2.067,323
2.068,320
2.069,323
2.07,326
2.071,325
2.072,328
2.073,325
2.074,326
2.075,325
2.076,323
2.077,324
2.078,322
2.079,322
2.08,322
2.081,323
2.082,323
2.083,325
2.084,326
2.085,327
2.086,325
2.087,326
2.088,324
2.089,323
2.09,322
2.091,324
2.092,323
2.093,322
2.094,324
2.095,324
2.096,323
2.097,321
2.098,321
2.099,319
2.1,320
2.101,320
2.102,321
2.103,320
2.104,321
2.105,321
2.106,322
2.107,322
2.108,324
2.109,321
2.11,323
2.111,326
2.112,329
2.113,326
2.114,324
2.115,325
2.116,326
2.117,324
2.118,323
2.119,323
2.12,321
2.121,320
2.122,320
2.123,320
2.124,320
2.125,320
2.126,321
2.127,323
2.128,324
2.129,324
2.13,322
2.131,321
2.132,322
2.133,322
2.134,323
2.135,324
2.136,323
2.137,323
2.138,324
2.139,324
2.14,323
2.141,322
2.142,321
2.143,322
2.144,326
2.145,326
2.146,323
2.147,325
2.148,324
2.149,325
2.15,323
2.151,323
2.152,324
2.153,325
2.154,323
2.155,325
2.156,326
2.157,324
2.158,324
2.159,326
2.16,324
2.161,322
2.162,321
2.163,322
2.164,322
2.165,321
2.166,319
2.167,322
2.168,325
2.169,325
2.17,324
2.171,324
2.172,322
2.173,324
2.174,323
2.175,324
2.176,327
2.177,328
2.178,325
2.179,323
2.18,324
2.181,323
2.182,322
2.183,322
2.184,322
2.185,323
2.186,321
2.187,322
2.188,325
2.189,324
2.19,321
2.191,322
2.192,322
2.193,320
2.194,321
2.195,319
2.196,319
2.197,320
2.198,321
2.199,322
2.2,321
2.201,322
2.202,324
2.203,326
2.204,323
2.205,324
2.206,320
2.207,322
2.208,322
2.209,324
2.21,324
2.211,321
2.212,323
2.213,324
2.214,325
2.215,323
2.216,320
2.217,322
2.218,323
2.219,324
2.22,323
2.221,322
2.222,324
2.223,323
2.224,322
2.225,323
2.226,324
2.227,325
2.228,327
2.229,325
2.23,325
2.231,323
2.232,324
2.233,323
2.234,324
2.235,324
2.236,325
2.237,323
2.238,323
2.239,320
2.24,321
2.241,322
2.242,322
2.243,322
2.244,323
2.245,324
2.246,324
2.247,323
2.248,323
2.249,323
2.25,323
2.251,325
2.252,325
2.253,325
2.254,326
2.255,327
2.256,322
2.257,323
2.258,325
2.259,325
2.26,324
2.261,326
2.262,322
2.263,324
2.264,323
2.265,322
2.266,322
2.267,320
2.268,320
2.269,323
2.27,325
2.271,322
2.272,323
2.273,323
2.274,321
2.275,320
2.276,322
2.277,321
2.278,323
2.279,322
2.28,320
2.281,320
2.282,321
2.283,320
2.284,321
2.285,321
2.286,325
2.287,326
2.288,325
2.289,323
2.29,325
2.291,327
2.292,325
2.293,323
2.294,323
2.295,324
2.296,324
2.297,322
2.298,322
2.299,323
2.3,324
2.301,323
2.302,323
2.303,322
2.304,323
2.305,322
2.306,321
2.307,320
2.308,321
2.309,323
2.31,322
2.311,322
2.312,324
2.313,323
2.314,325
2.315,325
2.316,323
2.317,321
2.318,326
2.319,323
2.32,323
2.321,322
2.322,322
2.323,322
2.324,322
2.325,322
2.326,320
2.327,322
2.328,322
2.329,324
2.33,322
2.331,324
2.332,322
2.333,321
2.334,322
2.335,323
2.336,323
2.337,322
2.338,324
2.339,326
2.34,325
2.341,327
2.342,326
2.343,326
2.344,324
2.345,326
2.346,325
2.347,323
2.348,323
2.349,323
2.35,323
2.351,322
2.352,324
2.353,327
2.354,326
2.355,318
2.356,321
2.357,324
2.358,323
2.359,324
2.36,323
2.361,319
2.362,323
2.363,325
2.364,324
2.365,323
2.366,322
2.367,322
2.368,325
2.369,323
2.37,323
2.371,322
2.372,322
2.373,319
2.374,321
2.375,322
2.376,322
2.377,322
2.378,324
2.379,323
2.38,324
2.381,325
2.382,323
2.383,323
2.384,325
2.385,324
2.386,322
2.387,322
2.388,322
2.389,322
2.39,322
2.391,322
2.392,322
2.393,321
2.394,322
2.395,321
2.396,322
2.397,323
2.398,322
2.399,322
2.4,322
2.401,322
2.402,322
2.403,322
2.404,323
2.405,323
2.406,322
2.407,323
2.408,323
2.409,320
2.41,323
2.411,323
2.412,322
2.413,321
2.414,322
2.415,322
2.416,323
2.417,325
2.418,324
2.419,324
2.42,325
2.421,326
2.422,327
2.423,325
2.424,325
2.425,326
2.426,326
2.427,327
2.428,327
2.429,329
2.43,328
2.431,328
2.432,327
2.433,322
2.434,324
2.435,323
2.436,323
2.437,325
2.438,322
2.439,321
2.44,325
2.441,323
2.442,323
2.443,320
2.444,322
2.445,323
2.446,323
2.447,322
2.448,322
2.449,323
2.45,321
2.451,321
2.452,322
2.453,321
2.454,323
2.455,321
2.456,322
2.457,322
2.458,323
2.459,324
2.46,321
2.461,322
2.462,324
2.463,321
2.464,325
2.465,326
2.466,325
2.467,324
2.468,322
2.469,321
2.47,323
2.471,324
2.472,324
2.473,320
2.474,320
2.475,320
2.476,321
2.477,322
2.478,321
2.479,321
2.48,321
2.481,321
2.482,321
2.483,323
2.484,323
2.485,322
2.486,322
2.487,323
2.488,324
2.489,324
2.49,323
2.491,323
2.492,324
2.493,323
2.494,325
2.495,321
2.496,320
2.497,320
2.498,322
2.499,324
2.5,325
2.501,325
2.502,325
2.503,323
2.504,324
2.505,324
2.506,322
2.507,322
2.508,323
2.509,324
2.51,322
2.511,326
2.512,325
2.513,323
2.514,321
2.515,325
2.516,323
2.517,322
2.518,321
2.519,323
2.52,327
2.521,327
2.522,318
2.523,318
2.524,323
2.525,325
2.526,323
2.527,323
2.528,322
2.529,322
2.53,322
2.531,321
2.532,322
2.533,322
2.534,320
2.535,322
2.536,321
2.537,321
2.538,322
2.539,323
2.54,324
2.541,325
2.542,324
2.543,324
2.544,324
2.545,322
2.546,322
2.547,322
2.548,324
2.549,323
2.55,325
2.551,326
2.552,324
2.553,325
2.554,325
2.555,323
2.556,324
2.557,323
2.558,322
2.559,321
2.56,321
2.561,322
2.562,322
2.563,323
2.564,324
2.565,324
2.566,324
2.567,325
2.568,320
2.569,321
2.57,323
2.571,323
2.572,324
2.573,324
2.574,322
2.575,324
2.576,325
2.577,325
2.578,322
2.579,322
2.58,324
2.581,320
2.582,321
2.583,324
2.584,325
2.585,323
2.586,322
2.587,320
2.588,322
2.589,323
2.59,323
2.591,323
2.592,323
2.593,323
2.594,323
2.595,324
2.596,325
2.597,323
2.598,324
2.599,324
2.6,323
2.601,324
2.602,323
2.603,326
2.604,326
2.605,328
2.606,327
2.607,328
2.608,324
2.609,322
2.61,321
2.611,322
2.612,322
2.613,321
2.614,321
2.615,322
2.616,321
2.617,322
2.618,320
2.619,322
2.62,321
2.621,321
2.622,323
2.623,323
2.624,322
2.625,324
2.626,323
2.627,323
2.628,322
2.629,324
2.63,325
2.631,323
2.632,325
2.633,325
2.634,323
2.635,323
2.636,323
2.637,322
2.638,321
2.639,321
2.64,321
2.641,321
2.642,323
2.643,323
2.644,323
2.645,324
2.646,324
2.647,323
2.648,325
2.649,324
2.65,324
2.651,324
2.652,323
2.653,323
2.654,323
2.655,323
2.656,324
2.657,324
2.658,324
2.659,326
2.66,323
2.661,324
2.662,323
2.663,323
2.664,324
2.665,321
2.666,322
2.667,326
2.668,324
2.669,322
2.67,322
2.671,323
2.672,323
2.673,323
2.674,323
2.675,322
2.676,322
2.677,323
2.678,320
2.679,322
2.68,322
2.681,322
2.682,324
2.683,323
2.684,323
2.685,323
2.686,324
2.687,322
2.688,322
2.689,324
2.69,323
2.691,321
2.692,321
2.693,323
2.694,322
2.695,323
2.696,323
2.697,323
2.698,324
2.699,323
2.7,321
2.701,322
2.702,322
2.703,325
2.704,323
2.705,323
2.706,323
2.707,325
2.708,322
2.709,322
2.71,324
2.711,323
2.712,322
2.713,322
2.714,322
2.715,323
2.716,324
2.717,323
2.718,320
2.719,322
2.72,322
2.721,322
2.722,323
2.723,323
2.724,323
2.725,325
2.726,324
2.727,325
2.728,327
2.729,322
2.73,324
2.731,323
2.732,324
2.733,323
2.734,323
2.735,322
2.736,323
2.737,322
2.738,322
2.739,323
2.74,322
2.741,322
2.742,321
2.743,322
2.744,323
2.745,323
2.746,323
2.747,324
2.748,323
2.749,324
2.75,325
2.751,322
2.752,323
2.753,322
2.754,323
2.755,324
2.756,324
2.757,323
2.758,322
2.759,323
2.76,322
2.761,321
2.762,322
2.763,320
2.764,320
2.765,324
2.766,325
2.767,321
2.768,324
2.769,323
2.77,319
2.771,322
2.772,322
2.773,322
2.774,325
2.775,324
2.776,323
2.777,324
2.778,323
2.779,323
2.78,324
2.781,324
2.782,325
2.783,323
2.784,322
2.785,324
2.786,323
2.787,322
2.788,322
2.789,323
2.79,323
2.791,324
2.792,323
2.793,323
2.794,324
2.795,322
2.796,322
2.797,323
2.798,324
2.799,322
2.8,321
2.801,322
2.802,323
2.803,327
2.804,324
2.805,324
2.806,327
2.807,323
2.808,324
2.809,326
2.81,323
2.811,321
2.812,322
2.813,322
2.814,323
2.815,324
2.816,323
2.817,324
2.818,322
2.819,321
2.82,322
2.821,321
2.822,321
2.823,321
2.824,321
2.825,324
2.826,325
2.827,321
2.828,321
2.829,322
2.83,321
2.831,322
2.832,322
2.833,325
2.834,324
2.835,323
2.836,322
2.837,323
2.838,323
2.839,323
2.84,322
2.841,323
2.842,323
2.843,323
2.844,323
2.845,323
2.846,321
2.847,324
2.848,325
2.849,326
2.85,322
2.851,323
2.852,322
2.853,322
2.854,322
2.855,323
2.856,321
2.857,322
2.858,322
2.859,323
2.86,321
2.861,322
2.862,322
2.863,322
2.864,323
2.865,322
2.866,324
2.867,325
2.868,323
2.869,323
2.87,323
2.871,324
2.872,323
2.873,323
2.874,323
2.875,324
2.876,325
2.877,325
2.878,323
2.879,325
2.88,324
2.881,322
2.882,320
2.883,323
2.884,323
2.885,322
2.886,325
2.887,325
2.888,323
2.889,322
2.89,322
2.891,324
2.892,325
2.893,322
2.894,323
2.895,323
2.896,322
2.897,323
2.898,324
2.899,324
2.9,323
2.901,323
2.902,322
2.903,323
2.904,322
2.905,323
2.906,323
2.907,323
2.908,322
2.909,321
2.91,322
2.911,323
2.912,321
2.913,324
2.914,322
2.915,323
2.916,322
2.917,323
2.918,323
2.919,324
2.92,324
2.921,323
2.922,324
2.923,322
2.924,322
2.925,323
2.926,323
2.927,322
2.928,321
2.929,323
2.93,323
2.931,322
2.932,322
2.933,324
2.934,323
2.935,323
2.936,322
2.937,322
2.938,324
2.939,322
2.94,323
2.941,322
2.942,323
2.943,324
2.944,322
2.945,324
2.946,323
2.947,324
2.948,322
2.949,322
2.95,321
2.951,322
2.952,323
2.953,322
2.954,323
2.955,323
2.956,324
2.957,325
2.958,323
2.959,321
2.96,323
2.961,325
2.962,322
2.963,324
2.964,323
2.965,322
2.966,323
2.967,321
2.968,322
2.969,320
2.97,320
2.971,322
2.972,322
2.973,322
2.974,323
2.975,322
2.976,322
2.977,323
2.978,322
2.979,322
2.98,322
2.981,323
2.982,323
2.983,323
2.984,325
2.985,322
2.986,325
2.987,323
2.988,322
2.989,322
2.99,322
2.991,324
2.992,323
2.993,324
2.994,320
2.995,322
2.996,322
2.997,322
2.998,321
2.999,323
3,323
3.001,323
3.002,322
3.003,322
3.004,321
3.005,322
3.006,323
3.007,324
3.008,324
3.009,323
3.01,324
3.011,324
3.012,323
3.013,324
3.014,323
3.015,323
3.016,324
3.017,323
3.018,323
3.019,323
3.02,323
3.021,323
3.022,323
3.023,322
3.024,321
3.025,322
3.026,323
3.027,324
3.028,322
3.029,321
3.03,323
3.031,324
3.032,322
3.033,322
3.034,324
3.035,323
3.036,323
3.037,323
3.038,323
3.039,323
3.04,322
3.041,325
3.042,325
3.043,325
3.044,324
3.045,324
3.046,324
3.047,322
3.048,323
3.049,322
3.05,322
3.051,322
3.052,320
3.053,321
3.054,323
3.055,324
3.056,324
3.057,323
3.058,323
3.059,325
3.06,327
3.061,326
3.062,323
3.063,327
3.064,326
3.065,325
3.066,325
3.067,326
3.068,325
3.069,324
3.07,325
3.071,327
3.072,323
3.073,321
3.074,320
3.075,323
3.076,322
3.077,323
3.078,321
3.079,323
3.08,322
3.081,326
3.082,324
3.083,324
3.084,324
3.085,323
3.086,324
3.087,323
3.088,323
3.089,321
3.09,322
3.091,322
3.092,322
3.093,323
3.094,325
3.095,327
3.096,329
3.097,327
3.098,324
3.099,323
3.1,325
3.101,326
3.102,325
3.103,324
3.104,323
3.105,320
3.106,319
3.107,320
3.108,320
3.109,319
3.11,316
3.111,316
3.112,318
3.113,318
3.114,319
3.115,322
3.116,320
3.117,318
3.118,321
3.119,322
3.12,327
3.121,327
3.122,326
3.123,325
3.124,325
3.125,323
3.126,324
3.127,325
3.128,324
3.129,323
3.13,324
3.131,324
3.132,327
3.133,328
3.134,331
3.135,333
3.136,332
3.137,329
3.138,325
3.139,324
3.14,324
3.141,322
3.142,322
3.143,318
3.144,320
3.145,323
3.146,321
3.147,324
3.148,326
3.149,320
3.15,315
3.151,314
3.152,312
3.153,312
3.154,314
3.155,316
3.156,319
3.157,321
3.158,322
3.159,325
3.16,324
3.161,322
3.162,322
3.163,321
3.164,321
3.165,322
3.166,321
3.167,320
3.168,323
3.169,325
3.17,326
3.171,329
3.172,328
3.173,328
3.174,328
3.175,325
3.176,326
3.177,324
3.178,321
3.179,320
3.18,322
3.181,327
3.182,329
3.183,329
3.184,326
3.185,325
3.186,327
3.187,330
3.188,333
3.189,327
3.19,325
3.191,319
3.192,322
3.193,325
3.194,321
3.195,320
3.196,324
3.197,325
3.198,326
3.199,328
3.2,329
3.201,327
3.202,322
3.203,321
3.204,316
3.205,319
3.206,318
3.207,318
3.208,318
3.209,318
3.21,320
3.211,318
3.212,319
3.213,317
3.214,317
3.215,317
3.216,318
3.217,319
3.218,318
3.219,317
3.22,316
3.221,320
3.222,325
3.223,326
3.224,327
3.225,327
3.226,328
3.227,328
3.228,326
3.229,325
3.23,324
3.231,325
3.232,329
3.233,329
3.234,329
3.235,322
3.236,320
3.237,317
3.238,315
3.239,319
3.24,322
3.241,328
3.242,329
3.243,327
3.244,321
3.245,318
3.246,320
3.247,322
3.248,320
3.249,322
3.25,333
3.251,341
3.252,339
3.253,331
3.254,320
3.255,317
3.256,315
3.257,314
3.258,315
3.259,323
3.26,328
3.261,329
3.262,325
3.263,319
3.264,316
3.265,311
3.266,310
3.267,311
3.268,311
3.269,314
3.27,319
3.271,321
3.272,329
3.273,334
3.274,332
3.275,327
3.276,325
3.277,323
3.278,320
3.279,321
3.28,320
3.281,318
3.282,320
3.283,322
3.284,326
3.285,325
3.286,325
3.287,323
3.288,328
3.289,333
3.29,333
3.291,333
3.292,330
3.293,333
3.294,334
3.295,333
3.296,327
3.297,325
3.298,327
3.299,325
3.3,319
3.301,318
3.302,320
3.303,319
3.304,319
3.305,321
3.306,323
3.307,321
3.308,322
3.309,324
3.31,324
3.311,322
3.312,323
3.313,328
3.314,331
3.315,329
3.316,324
3.317,327
3.318,326
3.319,325
3.32,319
3.321,314
3.322,317
3.323,315
3.324,313
3.325,317
3.326,319
3.327,326
3.328,328
3.329,330
3.33,324
3.331,318
3.332,317
3.333,319
3.334,321
3.335,320
3.336,319
3.337,322
3.338,324
3.339,329
3.34,328
3.341,323
3.342,318
3.343,317
3.344,323
3.345,323
3.346,320
3.347,321
3.348,321
3.349,323
3.35,321
3.351,325
3.352,328
3.353,330
3.354,328
3.355,325
3.356,320
3.357,322
3.358,322
3.359,325
3.36,327
3.361,330
3.362,330
3.363,325
3.364,321
3.365,321
3.366,323
3.367,325
3.368,328
3.369,335
3.37,332
3.371,329
3.372,324
3.373,317
3.374,311
3.375,313
3.376,311
3.377,316
3.378,323
3.379,323
3.38,324
3.381,325
3.382,328
3.383,331
3.384,331
3.385,330
3.386,325
3.387,321
3.388,325
3.389,320
3.39,318
3.391,319
3.392,319
3.393,320
3.394,323
3.395,326
3.396,328
3.397,334
3.398,331
3.399,327
3.4,322
3.401,316
3.402,311
3.403,309
3.404,310
3.405,316
3.406,324
3.407,329
3.408,325
3.409,321
3.41,318
3.411,317
3.412,319
3.413,317
3.414,316
3.415,316
3.416,316
3.417,318
3.418,321
3.419,322
3.42,324
3.421,324
3.422,327
3.423,331
3.424,334
3.425,333
3.426,329
3.427,327
3.428,328
3.429,331
3.43,333
3.431,331
3.432,328
3.433,325
3.434,322
3.435,319
3.436,316
3.437,319
3.438,322
3.439,322
3.44,320
3.441,318
3.442,322
3.443,324
3.444,324
3.445,322
3.446,319
3.447,317
3.448,318
3.449,321
3.45,321
3.451,323
3.452,327
3.453,329
3.454,331
3.455,331
3.456,328
3.457,327
3.458,322
3.459,317
3.46,315
3.461,313
3.462,315
3.463,319
3.464,320
3.465,320
3.466,328
3.467,336
3.468,337
3.469,336
3.47,334
3.471,334
3.472,331
3.473,325
3.474,320
3.475,317
3.476,315
3.477,317
3.478,327
3.479,332
3.48,327
3.481,328
3.482,331
3.483,326
3.484,324
3.485,320
3.486,317
3.487,312
3.488,312
3.489,313
3.49,315
3.491,317
3.492,319
3.493,322
3.494,321
3.495,320
3.496,317
3.497,319
3.498,316
3.499,319
3.5,323
3.501,325
3.502,323
3.503,322
3.504,326
3.505,325
3.506,324
3.507,325
3.508,327
3.509,328
3.51,330
3.511,324
3.512,320
3.513,316
3.514,314
3.515,317
3.516,321
3.517,322
3.518,325
3.519,326
3.52,329
3.521,329
3.522,326
3.523,328
3.524,327
3.525,329
3.526,324
3.527,325
3.528,328
3.529,329
3.53,329
3.531,328
3.532,327
3.533,322
3.534,320
3.535,320
3.536,320
3.537,321
3.538,323
3.539,323
3.54,325
3.541,325
3.542,325
3.543,325
3.544,323
3.545,323
3.546,322
3.547,321
3.548,318
3.549,318
3.55,322
3.551,325
3.552,326
3.553,326
3.554,324
3.555,319
3.556,316
3.557,317
3.558,317
3.559,319
3.56,321
3.561,326
3.562,328
3.563,326
3.564,326
3.565,325
3.566,331
3.567,333
3.568,324
3.569,320
3.57,320
3.571,317
3.572,318
3.573,320
3.574,322
3.575,322
3.576,320
3.577,319
3.578,315
3.579,315
3.58,316
3.581,315
3.582,315
3.583,316
3.584,318
3.585,321
3.586,322
3.587,323
3.588,326
3.589,328
3.59,330
3.591,329
3.592,332
3.593,331
3.594,331
3.595,328
3.596,323
3.597,321
3.598,318
3.599,321
3.6,326
3.601,331
3.602,331
3.603,330
3.604,325
3.605,322
3.606,319
3.607,317
3.608,316
3.609,317
3.61,316
3.611,320
3.612,320
3.613,317
3.614,319
3.615,320
3.616,317
3.617,316
3.618,318
3.619,323
3.62,330
3.621,335
3.622,335
3.623,335
3.624,333
3.625,328
3.626,325
3.627,323
3.628,320
3.629,324
3.63,332
3.631,333
3.632,327
3.633,319
3.634,320
3.635,322
3.636,322
3.637,322
3.638,320
3.639,321
3.64,326
3.641,326
3.642,322
3.643,318
3.644,316
3.645,314
3.646,315
3.647,316
3.648,315
3.649,316
3.65,318
3.651,317
3.652,315
3.653,315
3.654,316
3.655,315
3.656,318
3.657,320
3.658,322
3.659,324
3.66,325
3.661,326
3.662,326
3.663,327
3.664,327
3.665,325
3.666,323
3.667,321
3.668,320
3.669,319
3.67,322
3.671,323
3.672,320
3.673,319
3.674,320
3.675,324
3.676,326
3.677,328
3.678,329
3.679,328
3.68,328
3.681,329
3.682,328
3.683,326
3.684,326
3.685,325
3.686,323
3.687,325
3.688,326
3.689,327
3.69,328
3.691,327
3.692,327
3.693,328
3.694,328
3.695,328
3.696,326
3.697,324
3.698,321
3.699,318
3.7,320
3.701,325
3.702,331
3.703,333
3.704,331
3.705,327
3.706,320
3.707,318
3.708,314
3.709,313
3.71,313
3.711,317
3.712,319
3.713,321
3.714,323
3.715,322
3.716,323
3.717,324
3.718,321
3.719,317
3.72,319
3.721,321
3.722,321
3.723,324
3.724,325
3.725,326
3.726,325
3.727,325
3.728,325
3.729,329
3.73,327
3.731,322
3.732,321
3.733,318
3.734,320
3.735,322
3.736,321
3.737,320
3.738,318
3.739,319
3.74,319
3.741,320
3.742,321
3.743,321
3.744,320
3.745,320
3.746,318
3.747,319
3.748,317
3.749,318
3.75,320
3.751,324
3.752,327
3.753,324
3.754,325
3.755,324
3.756,324
3.757,323
3.758,325
3.759,325
3.76,326
3.761,324
3.762,323
3.763,322
3.764,321
3.765,321
3.766,324
3.767,327
3.768,331
3.769,328
3.77,326
3.771,324
3.772,319
3.773,318
3.774,320
3.775,322
3.776,322
3.777,324
3.778,327
3.779,331
3.78,335
3.781,336
3.782,329
3.783,324
3.784,319
3.785,318
3.786,317
3.787,315
3.788,317
3.789,317
3.79,315
3.791,318
3.792,320
3.793,320
3.794,320
3.795,320
3.796,320
3.797,320
3.798,320
3.799,320
3.8,322
3.801,324
3.802,324
3.803,327
3.804,330
3.805,331
3.806,330
3.807,330
3.808,325
3.809,322
3.81,320
3.811,322
3.812,320
3.813,319
3.814,318
3.815,319
3.816,319
3.817,319
3.818,318
3.819,319
3.82,322
3.821,322
3.822,323
3.823,321
3.824,322
3.825,321
3.826,322
3.827,323
3.828,322
3.829,325
3.83,322
3.831,323
3.832,327
3.833,328
3.834,324
3.835,325
3.836,324
3.837,321
3.838,320
3.839,322
3.84,322
3.841,323
3.842,324
3.843,324
3.844,322
3.845,323
3.846,322
3.847,322
3.848,323
3.849,322
3.85,321
3.851,322
3.852,320
3.853,322
3.854,324
3.855,323
3.856,322
3.857,322
3.858,322
3.859,322
3.86,325
3.861,325
3.862,323
3.863,320
3.864,318
3.865,320
3.866,322
3.867,322
3.868,323
3.869,324
3.87,323
3.871,322
3.872,322
3.873,322
3.874,321
3.875,323
3.876,322
3.877,324
3.878,323
3.879,323
3.88,325
3.881,325
3.882,324
3.883,322
3.884,322
3.885,324
3.886,324
3.887,323
3.888,323
3.889,325
3.89,324
3.891,325
3.892,325
3.893,324
3.894,322
3.895,322
3.896,325
3.897,324
3.898,323
3.899,323
3.9,325
3.901,325
3.902,323
3.903,322
3.904,324
3.905,324
3.906,325
3.907,324
3.908,323
3.909,324
3.91,322
3.911,322
3.912,323
3.913,323
3.914,323
3.915,323
3.916,322
3.917,322
3.918,323
3.919,323
3.92,323
3.921,323
3.922,323
3.923,321
3.924,324
3.925,323
3.926,323
3.927,324
3.928,323
3.929,323
3.93,324
3.931,323
3.932,324
3.933,322
3.934,323
3.935,322
3.936,323
3.937,323
3.938,323
3.939,323
3.94,323
3.941,323
3.942,322
3.943,323
3.944,323
3.945,325
3.946,323
3.947,322
3.948,323
3.949,322
3.95,323
3.951,323
3.952,323
3.953,325
3.954,325
3.955,324
3.956,322
3.957,324
3.958,323
3.959,322
3.96,322
3.961,323
3.962,324
3.963,323
3.964,322
3.965,322
3.966,323
3.967,323
3.968,322
3.969,322
3.97,321
3.971,320
3.972,321
3.973,322
3.974,325
3.975,326
3.976,324
3.977,323
3.978,321
3.979,321
3.98,320
3.981,320
3.982,321
3.983,322
3.984,323
3.985,325
3.986,324
3.987,322
3.988,322
3.989,323
3.99,322
3.991,323
3.992,324
3.993,322
3.994,322
3.995,322
3.996,322
3.997,324
3.998,324
3.999,324
4,323
4.001,323
4.002,323
4.003,321
4.004,321
4.005,322
4.006,323
4.007,322
4.008,322
4.009,322
4.01,323
4.011,323
4.012,324
4.013,322
4.014,322
4.015,322
4.016,322
4.017,323
4.018,323
4.019,322
4.02,323
4.021,323
4.022,322
4.023,322
4.024,322
4.025,323
4.026,322
4.027,323
4.028,323
4.029,323
4.03,324
4.031,322
4.032,323
4.033,321
4.034,321
4.035,320
4.036,320
4.037,321
4.038,325
4.039,325
4.04,325
4.041,322
4.042,322
4.043,324
4.044,323
4.045,324
4.046,324
4.047,324
4.048,325
4.049,323
4.05,324
4.051,324
4.052,325
4.053,324
4.054,324
4.055,325
4.056,322
4.057,322
4.058,321
4.059,320
4.06,323
4.061,324
4.062,324
4.063,326
4.064,324
4.065,324
4.066,324
4.067,322
4.068,321
4.069,323
4.07,323
4.071,324
4.072,324
4.073,325
4.074,325
4.075,323
4.076,321
4.077,322
4.078,322
4.079,324
4.08,324
4.081,323
4.082,323
4.083,323
4.084,322
4.085,322
4.086,322
4.087,324
4.088,323
4.089,324
4.09,323
4.091,323
4.092,322
4.093,323
4.094,322
4.095,322
4.096,321
4.097,322
4.098,322
4.099,322
4.1,322
4.101,323
4.102,322
4.103,322
4.104,322
4.105,324
4.106,323
4.107,324
4.108,324
4.109,324
4.11,324
4.111,322
4.112,322
4.113,322
4.114,323
4.115,325
4.116,324
4.117,323
4.118,324
4.119,327
4.12,326
4.121,325
4.122,324
4.123,322
4.124,321
4.125,323
4.126,323
4.127,323
4.128,322
4.129,323
4.13,321
4.131,321
4.132,322
4.133,323
4.134,322
4.135,321
4.136,319
4.137,320
4.138,321
4.139,322
4.14,322
4.141,324
4.142,322
4.143,323
4.144,322
4.145,324
4.146,322
4.147,322
4.148,324
4.149,322
4.15,322
4.151,324
4.152,325
4.153,325
4.154,324
4.155,324
4.156,323
4.157,323
4.158,323
4.159,323
4.16,322
4.161,322
4.162,323
4.163,323
4.164,322
4.165,322
4.166,324
4.167,324
4.168,325
4.169,323
4.17,321
4.171,322
4.172,322
4.173,324
4.174,324
4.175,325
4.176,323
4.177,324
4.178,320
4.179,321
4.18,323
4.181,322
4.182,324
4.183,323
4.184,324
4.185,323
4.186,323
4.187,321
4.188,322
4.189,323
4.19,323
4.191,323
4.192,322
4.193,324
4.194,325
4.195,324
4.196,325
4.197,324
4.198,325
4.199,322
4.2,322
4.201,322
4.202,324
4.203,322
4.204,321
4.205,320
4.206,320
4.207,320
4.208,321
4.209,321
4.21,320
4.211,322
4.212,323
4.213,324
4.214,323
4.215,322
4.216,323
4.217,323
4.218,323
4.219,324
4.22,322
4.221,322
4.222,324
4.223,324
4.224,325
4.225,323
4.226,324
4.227,322
4.228,323
4.229,321
4.23,321
4.231,321
4.232,323
4.233,322
4.234,322
4.235,323
4.236,321
4.237,323
4.238,322
4.239,323
4.24,324
4.241,325
4.242,324
4.243,324
4.244,324
4.245,323
4.246,323
4.247,323
4.248,322
4.249,322
4.25,322
4.251,323
4.252,324
4.253,323
4.254,323
4.255,324
4.256,324
4.257,323
4.258,323
4.259,324
4.26,324
4.261,324
4.262,324
4.263,324
4.264,323
4.265,322
4.266,322
4.267,323
4.268,323
4.269,324
4.27,323
4.271,323
4.272,321
4.273,322
4.274,322
4.275,320
4.276,323
4.277,322
4.278,323
4.279,323
4.28,322
4.281,321
4.282,321
4.283,322
4.284,324
4.285,327
4.286,326
4.287,325
4.288,324
4.289,325
4.29,324
4.291,326
4.292,325
4.293,322
4.294,322
4.295,322
4.296,322
4.297,321
4.298,321
4.299,322
4.3,321
4.301,321
4.302,321
4.303,321
4.304,320
4.305,321
4.306,320
4.307,320
4.308,320
4.309,322
4.31,322
4.311,321
4.312,321
4.313,320
4.314,323
4.315,323
4.316,323
4.317,323
4.318,324
4.319,325
4.32,322
4.321,323
4.322,322
4.323,323
4.324,324
4.325,324
4.326,325
4.327,325
4.328,324
4.329,324
4.33,322
4.331,325
4.332,325
4.333,322
4.334,321
4.335,321
4.336,322
4.337,322
4.338,321
4.339,323
4.34,323
4.341,325
4.342,324
4.343,324
4.344,324
4.345,323
4.346,323
4.347,324
4.348,325
4.349,325
4.35,322
4.351,322
4.352,323
4.353,324
4.354,325
4.355,325
4.356,324
4.357,322
4.358,321
4.359,323
4.36,323
4.361,323
4.362,321
4.363,323
4.364,322
4.365,323
4.366,321
4.367,320
4.368,320
4.369,322
4.37,323
4.371,323
4.372,322
4.373,320
4.374,320
4.375,322
4.376,322
4.377,322
4.378,322
4.379,320
4.38,321
4.381,321
4.382,323
4.383,325
4.384,325
4.385,325
4.386,325
4.387,327
4.388,329
4.389,327
4.39,324
4.391,320
4.392,320
4.393,322
4.394,323
4.395,325
4.396,325
4.397,325
4.398,324
4.399,322
4.4,323
4.401,324
4.402,323
4.403,321
4.404,321
4.405,321
4.406,320
4.407,323
4.408,324
4.409,327
4.41,326
4.411,326
4.412,328
4.413,326
4.414,324
4.415,324
4.416,323
4.417,323
4.418,322
4.419,323
4.42,322
4.421,323
4.422,323
4.423,322
4.424,321
4.425,321
4.426,323
4.427,321
4.428,318
4.429,320
4.43,319
4.431,321
4.432,323
4.433,322
4.434,321
4.435,320
4.436,321
4.437,323
4.438,323
4.439,322
4.44,323
4.441,322
4.442,323
4.443,325
4.444,325
4.445,325
4.446,323
4.447,320
4.448,319
4.449,317
4.45,321
4.451,325
4.452,328
4.453,330
4.454,327
4.455,328
4.456,326
4.457,324
4.458,322
4.459,318
4.46,316
4.461,319
4.462,324
4.463,325
4.464,324
4.465,323
4.466,323
4.467,322
4.468,321
4.469,319
4.47,317
4.471,316
4.472,314
4.473,317
4.474,320
4.475,323
4.476,324
4.477,325
4.478,326
4.479,324
4.48,324
4.481,323
4.482,323
4.483,321
4.484,320
4.485,321
4.486,320
4.487,320
4.488,321
4.489,324
4.49,326
4.491,327
4.492,326
4.493,327
4.494,326
4.495,325
4.496,325
4.497,322
4.498,321
4.499,321
4.5,320
4.501,322
4.502,324
4.503,326
4.504,331
4.505,332
4.506,332
4.507,326
4.508,324
4.509,319
4.51,320
4.511,319
4.512,317
4.513,319
4.514,318
4.515,321
4.516,324
4.517,325
4.518,326
4.519,323
4.52,322
4.521,321
4.522,316
4.523,316
4.524,319
4.525,320
4.526,324
4.527,325
4.528,324
4.529,325
4.53,325
4.531,325
4.532,323
4.533,320
4.534,317
4.535,317
4.536,317
4.537,317
4.538,320
4.539,322
4.54,323
4.541,322
4.542,325
4.543,324
4.544,324
4.545,322
4.546,325
4.547,327
4.548,328
4.549,328
4.55,328
4.551,327
4.552,326
4.553,323
4.554,324
4.555,324
4.556,320
4.557,320
4.558,320
4.559,320
4.56,326
4.561,326
4.562,324
4.563,324
4.564,327
4.565,332
4.566,335
4.567,331
4.568,326
4.569,320
4.57,318
4.571,317
4.572,318
4.573,323
4.574,327
4.575,326
4.576,325
4.577,327
4.578,326
4.579,325
4.58,318
4.581,310
4.582,307
4.583,306
4.584,310
4.585,322
4.586,331
4.587,332
4.588,331
4.589,326
4.59,322
4.591,322
4.592,319
4.593,317
4.594,318
4.595,317
4.596,319
4.597,322
4.598,327
4.599,327
4.6,324
4.601,321
4.602,321
4.603,322
4.604,320
4.605,321
4.606,321
4.607,320
4.608,319
4.609,323
4.61,325
4.611,325
4.612,327
4.613,327
4.614,325
4.615,325
4.616,324
4.617,323
4.618,323
4.619,322
4.62,323
4.621,322
4.622,323
4.623,325
4.624,324
4.625,322
4.626,323
4.627,324
4.628,327
4.629,330
4.63,332
4.631,333
4.632,332
4.633,332
4.634,328
4.635,326
4.636,324
4.637,321
4.638,318
4.639,318
4.64,314
4.641,319
4.642,322
4.643,324
4.644,320
4.645,317
4.646,316
4.647,316
4.648,316
4.649,315
4.65,319
4.651,321
4.652,323
4.653,322
4.654,321
4.655,324
4.656,324
4.657,320
4.658,320
4.659,324
4.66,324
4.661,325
4.662,323
4.663,321
4.664,320
4.665,320
4.666,323
4.667,319
4.668,319
4.669,322
4.67,323
4.671,329
4.672,330
4.673,328
4.674,325
4.675,322
4.676,319
4.677,320
4.678,321
4.679,321
4.68,321
4.681,321
4.682,325
4.683,329
4.684,327
4.685,328
4.686,327
4.687,327
4.688,323
4.689,321
4.69,319
4.691,320
4.692,321
4.693,320
4.694,320
4.695,320
4.696,322
4.697,325
4.698,324
4.699,322
4.7,319
4.701,314
4.702,315
4.703,315
4.704,317
4.705,322
4.706,327
4.707,330
4.708,328
4.709,327
4.71,325
4.711,324
4.712,323
4.713,322
4.714,318
4.715,320
4.716,318
4.717,323
4.718,327
4.719,329
4.72,326
4.721,322
4.722,321
4.723,322
4.724,321
4.725,317
4.726,314
4.727,314
4.728,322
4.729,327
4.73,326
4.731,325
4.732,320
4.733,320
4.734,320
4.735,322
4.736,322
4.737,322
4.738,329
4.739,333
4.74,330
4.741,326
4.742,323
4.743,318
4.744,319
4.745,319
4.746,321
4.747,322
4.748,321
4.749,325
4.75,328
4.751,326
4.752,325
4.753,323
4.754,321
4.755,320
4.756,321
4.757,319
4.758,317
4.759,320
4.76,322
4.761,321
4.762,320
4.763,320
4.764,322
4.765,323
4.766,323
4.767,319
4.768,318
4.769,319
4.77,318
4.771,320
4.772,322
4.773,323
4.774,324
4.775,327
4.776,328
4.777,332
4.778,334
4.779,330
4.78,327
4.781,321
4.782,316
4.783,314
4.784,317
4.785,320
4.786,319
4.787,321
4.788,322
4.789,328
4.79,329
4.791,326
4.792,326
4.793,324
4.794,324
4.795,323
4.796,320
4.797,321
4.798,324
4.799,327
4.8,328
4.801,328
4.802,328
4.803,327
4.804,325
4.805,320
4.806,316
4.807,315
4.808,315
4.809,316
4.81,317
4.811,318
4.812,318
4.813,321
4.814,324
4.815,324
4.816,324
4.817,322
4.818,322
4.819,321
4.82,320
4.821,321
4.822,322
4.823,323
4.824,323
4.825,325
4.826,326
4.827,326
4.828,326
4.829,321
4.83,320
4.831,321
4.832,322
4.833,322
4.834,322
4.835,324
4.836,328
4.837,328
4.838,324
4.839,321
4.84,322
4.841,326
4.842,326
4.843,324
4.844,320
4.845,321
4.846,320
4.847,318
4.848,321
4.849,323
4.85,322
4.851,327
4.852,328
4.853,327
4.854,326
4.855,322
4.856,320
4.857,320
4.858,319
4.859,319
4.86,324
4.861,328
4.862,328
4.863,328
4.864,325
4.865,324
4.866,325
4.867,324
4.868,319
4.869,318
4.87,320
4.871,320
4.872,317
4.873,318
4.874,325
4.875,328
4.876,324
4.877,322
4.878,321
4.879,321
4.88,316
4.881,314
4.882,315
4.883,315
4.884,317
4.885,320
4.886,318
4.887,317
4.888,321
4.889,322
4.89,322
4.891,324
4.892,323
4.893,325
4.894,324
4.895,327
4.896,327
4.897,324
4.898,323
4.899,325
4.9,324
4.901,323
4.902,322
4.903,323
4.904,320
4.905,321
4.906,320
4.907,321
4.908,321
4.909,324
4.91,324
4.911,327
4.912,327
4.913,328
4.914,332
4.915,336
4.916,332
4.917,331
4.918,326
4.919,321
4.92,318
4.921,321
4.922,325
4.923,327
4.924,323
4.925,322
4.926,318
4.927,315
4.928,313
4.929,312
4.93,314
4.931,314
4.932,318
4.933,322
4.934,325
4.935,328
4.936,331
4.937,327
4.938,325
4.939,325
4.94,322
4.941,322
4.942,324
4.943,321
4.944,319
4.945,322
4.946,323
4.947,322
4.948,322
4.949,323
4.95,324
4.951,327
4.952,325
4.953,323
4.954,321
4.955,319
4.956,319
4.957,319
4.958,316
4.959,318
4.96,318
4.961,321
4.962,322
4.963,319
4.964,316
4.965,316
4.966,317
4.967,319
4.968,318
4.969,318
4.97,322
4.971,326
4.972,329
4.973,330
4.974,331
4.975,331
4.976,333
4.977,332
4.978,328
4.979,326
4.98,322
4.981,320
4.982,316
4.983,316
4.984,321
4.985,326
4.986,328
4.987,327
4.988,323
4.989,322
4.99,319
4.991,316
4.992,314
4.993,315
4.994,318
4.995,322
4.996,329
4.997,334
4.998,334
4.999,333
5,332
5.001,325
5.002,318
5.003,316
5.004,315
5.005,319
5.006,323
5.007,325
5.008,326
5.009,328
5.01,331
5.011,330
5.012,325
5.013,321
5.014,318
5.015,316
5.016,314
5.017,316
5.018,316
5.019,315
5.02,317
5.021,319
5.022,320
5.023,320
5.024,322
5.025,322
5.026,319
5.027,317
5.028,317
5.029,319
5.03,322
5.031,323
5.032,326
5.033,325
5.034,326
5.035,325
5.036,324
5.037,324
5.038,323
5.039,325
5.04,326
5.041,327
5.042,325
5.043,324
5.044,324
5.045,325
5.046,326
5.047,329
5.048,326
5.049,323
5.05,321
5.051,322
5.052,324
5.053,327
5.054,328
5.055,325
5.056,323
5.057,323
5.058,321
5.059,318
5.06,316
5.061,320
5.062,321
5.063,324
5.064,327
5.065,322
5.066,319
5.067,317
5.068,318
5.069,324
5.07,326
5.071,326
5.072,331
5.073,328
5.074,322
5.075,320
5.076,318
5.077,319
5.078,320
5.079,321
5.08,324
5.081,326
5.082,326
5.083,332
5.084,330
5.085,328
5.086,321
5.087,318
5.088,313
5.089,311
5.09,313
5.091,314
5.092,316
5.093,315
5.094,318
5.095,318
5.096,317
5.097,317
5.098,317
5.099,318
5.1,319
5.101,320
5.102,323
5.103,325
5.104,326
5.105,330
5.106,333
5.107,331
5.108,329
5.109,326
5.11,327
5.111,324
5.112,322
5.113,321
5.114,322
5.115,322
5.116,320
5.117,321
5.118,318
5.119,321
5.12,320
5.121,324
5.122,325
5.123,327
5.124,326
5.125,326
5.126,329
5.127,330
5.128,331
5.129,329
5.13,326
5.131,325
5.132,321
5.133,321
5.134,321
5.135,323
5.136,331
5.137,339
5.138,337
5.139,331
5.14,329
5.141,322
5.142,318
5.143,318
5.144,317
5.145,316
5.146,317
5.147,322
5.148,324
5.149,324
5.15,320
5.151,321
5.152,319
5.153,321
5.154,318
5.155,317
5.156,313
5.157,314
5.158,314
5.159,317
5.16,322
5.161,333
5.162,335
5.163,329
5.164,327
5.165,325
5.166,323
5.167,322
5.168,323
5.169,326
5.17,327
5.171,323
5.172,321
5.173,321
5.174,319
5.175,320
5.176,320
5.177,317
5.178,317
5.179,320
5.18,320
5.181,318
5.182,318
5.183,317
5.184,318
5.185,320
5.186,323
5.187,320
5.188,320
5.189,320
5.19,321
5.191,324
5.192,323
5.193,323
5.194,324
5.195,322
5.196,325
5.197,324
5.198,321
5.199,321
5.2,322
5.201,321
5.202,322
5.203,321
5.204,322
5.205,324
5.206,326
5.207,328
5.208,327
5.209,326
5.21,327
5.211,326
5.212,324
5.213,323
5.214,320
5.215,320
5.216,322
5.217,325
5.218,325
5.219,330
5.22,330
5.221,327
5.222,327
5.223,323
5.224,318
5.225,318
5.226,321
5.227,321
5.228,322
5.229,323
5.23,323
5.231,325
5.232,325
5.233,322
5.234,321
5.235,319
5.236,318
5.237,317
5.238,319
5.239,320
5.24,321
5.241,323
5.242,326
5.243,330
5.244,327
5.245,326
5.246,321
5.247,321
5.248,315
5.249,313
5.25,315
5.251,318
5.252,317
5.253,321
5.254,322
5.255,321
5.256,322
5.257,324
5.258,328
5.259,334
5.26,338
5.261,337
5.262,330
5.263,326
5.264,322
5.265,319
5.266,318
5.267,321
5.268,318
5.269,320
5.27,323
5.271,323
5.272,321
5.273,320
5.274,317
5.275,314
5.276,314
5.277,318
5.278,323
5.279,327
5.28,330
5.281,332
5.282,332
5.283,332
5.284,333
5.285,330
5.286,330
5.287,330
5.288,330
5.289,329
5.29,326
5.291,323
5.292,322
5.293,321
5.294,320
5.295,315
5.296,314
5.297,311
5.298,308
5.299,310
5.3,315
5.301,320
5.302,320
5.303,319
5.304,315
5.305,317
5.306,322
5.307,325
5.308,327
5.309,326
5.31,326
5.311,323
5.312,323
5.313,326
5.314,322
5.315,320
5.316,323
5.317,324
5.318,327
5.319,328
5.32,329
5.321,329
5.322,328
5.323,324
5.324,320
5.325,317
5.326,315
5.327,316
5.328,321
5.329,328
5.33,331
5.331,331
5.332,330
5.333,329
5.334,324
5.335,321
5.336,316
5.337,316
5.338,315
5.339,316
5.34,318
5.341,327
5.342,333
5.343,336
5.344,337
5.345,335
5.346,335
5.347,336
5.348,335
5.349,337
5.35,330
5.351,322
5.352,321
5.353,319
5.354,316
5.355,315
5.356,314
5.357,314
5.358,311
5.359,313
5.36,311
5.361,309
5.362,310
5.363,312
5.364,311
5.365,314
5.366,321
5.367,325
5.368,336
5.369,346
5.37,349
5.371,341
5.372,333
5.373,322
5.374,315
5.375,314
5.376,313
5.377,312
5.378,312
5.379,317
5.38,314
5.381,315
5.382,315
5.383,313
5.384,317
5.385,324
5.386,328
5.387,331
5.388,333
5.389,331
5.39,328
5.391,328
5.392,325
5.393,321
5.394,325
5.395,326
5.396,323
5.397,324
5.398,324
5.399,319
5.4,322
5.401,324
5.402,322
5.403,320
5.404,317
5.405,315
5.406,317
5.407,321
5.408,320
5.409,323
5.41,329
5.411,331
5.412,330
5.413,324
5.414,318
5.415,316
5.416,315
5.417,314
5.418,317
5.419,323
5.42,325
5.421,329
5.422,327
5.423,329
5.424,327
5.425,331
5.426,339
5.427,338
5.428,330
5.429,326
5.43,320
5.431,314
5.432,319
5.433,324
5.434,330
5.435,331
5.436,325
5.437,322
5.438,321
5.439,317
5.44,318
5.441,317
5.442,318
5.443,325
5.444,327
5.445,326
5.446,322
5.447,318
5.448,318
5.449,320
5.45,319
5.451,316
5.452,314
5.453,318
5.454,320
5.455,324
5.456,324
5.457,322
5.458,321
5.459,320
5.46,318
5.461,319
5.462,320
5.463,322
5.464,326
5.465,336
5.466,341
5.467,334
5.468,325
5.469,316
5.47,311
5.471,313
5.472,311
5.473,313
5.474,315
5.475,321
5.476,325
5.477,325
5.478,319
5.479,316
5.48,312
5.481,311
5.482,314
5.483,314
5.484,319
5.485,324
5.486,329
5.487,331
5.488,331
5.489,325
5.49,323
5.491,322
5.492,323
5.493,325
5.494,326
5.495,327
5.496,327
5.497,328
5.498,322
5.499,314
5.5,314
5.501,314
5.502,313
5.503,314
5.504,315
5.505,316
5.506,315
5.507,320
5.508,322
5.509,322
5.51,324
5.511,323
5.512,328
5.513,329
5.514,328
5.515,323
5.516,321
5.517,321
5.518,321
5.519,323
5.52,325
5.521,323
5.522,323
5.523,326
5.524,326
5.525,325
5.526,327
5.527,330
5.528,331
5.529,330
5.53,323
5.531,320
5.532,319
5.533,319
5.534,322
5.535,325
5.536,325
5.537,331
5.538,339
5.539,337
5.54,333
5.541,324
5.542,321
5.543,325
5.544,327
5.545,334
5.546,336
5.547,336
5.548,333
5.549,326
5.55,317
5.551,310
5.552,304
5.553,301
5.554,303
5.555,305
5.556,305
5.557,304
5.558,306
5.559,312
5.56,320
5.561,322
5.562,322
5.563,322
5.564,323
5.565,323
5.566,323
5.567,323
5.568,324
5.569,328
5.57,330
5.571,331
5.572,336
5.573,343
5.574,345
5.575,342
5.576,332
5.577,325
5.578,317
5.579,316
5.58,316
5.581,318
5.582,329
5.583,333
5.584,332
5.585,328
5.586,324
5.587,321
5.588,317
5.589,314
5.59,313
5.591,309
5.592,308
5.593,306
5.594,306
5.595,310
5.596,313
5.597,320
5.598,327
5.599,328
5.6,331
5.601,332
5.602,332
5.603,332
5.604,329
5.605,328
5.606,326
5.607,328
5.608,325
5.609,323
5.61,327
5.611,339
5.612,348
5.613,347
5.614,339
5.615,323
5.616,311
5.617,305
5.618,308
5.619,312
5.62,314
5.621,313
5.622,312
5.623,315
5.624,320
5.625,320
5.626,324
5.627,327
5.628,324
5.629,321
5.63,318
5.631,311
5.632,305
5.633,306
5.634,313
5.635,325
5.636,327
5.637,327
5.638,330
5.639,328
5.64,326
5.641,324
5.642,320
5.643,316
5.644,310
5.645,307
5.646,309
5.647,315
5.648,319
5.649,326
5.65,333
5.651,334
5.652,332
5.653,328
5.654,322
5.655,317
5.656,315
5.657,320
5.658,324
5.659,326
5.66,320
5.661,319
5.662,320
5.663,321
5.664,325
5.665,322
5.666,321
5.667,318
5.668,318
5.669,316
5.67,319
5.671,320
5.672,324
5.673,329
5.674,332
5.675,332
5.676,331
5.677,328
5.678,325
5.679,322
5.68,321
5.681,322
5.682,324
5.683,329
5.684,334
5.685,340
5.686,346
5.687,341
5.688,332
5.689,322
5.69,311
5.691,309
5.692,311
5.693,317
5.694,326
5.695,332
5.696,335
5.697,340
5.698,333
5.699,329
5.7,321
5.701,313
5.702,311
5.703,310
5.704,311
5.705,309
5.706,312
5.707,311
5.708,314
5.709,318
5.71,323
5.711,324
5.712,324
5.713,322
5.714,322
5.715,321
5.716,322
5.717,323
5.718,318
5.719,320
5.72,318
5.721,319
5.722,323
5.723,320
5.724,323
5.725,330
5.726,329
5.727,326
5.728,325
5.729,325
5.73,322
5.731,318
5.732,320
5.733,319
5.734,322
5.735,323
5.736,326
5.737,327
5.738,327
5.739,328
5.74,329
5.741,328
5.742,324
5.743,320
5.744,318
5.745,317
5.746,314
5.747,317
5.748,314
5.749,315
5.75,314
5.751,317
5.752,319
5.753,320
5.754,322
5.755,326
5.756,327
5.757,327
5.758,324
5.759,321
5.76,321
5.761,322
5.762,322
5.763,320
5.764,322
5.765,328
5.766,332
5.767,331
5.768,331
5.769,331
5.77,329
5.771,326
5.772,322
5.773,321
5.774,323
5.775,321
5.776,320
5.777,321
5.778,326
5.779,329
5.78,327
5.781,326
5.782,325
5.783,322
5.784,320
5.785,317
5.786,317
5.787,319
5.788,318
5.789,321
5.79,321
5.791,320
5.792,321
5.793,320
5.794,316
5.795,313
5.796,321
5.797,326
5.798,328
5.799,330
5.8,331
5.801,329
5.802,325
5.803,320
5.804,317
5.805,313
5.806,314
5.807,317
5.808,319
5.809,320
5.81,323
5.811,325
5.812,322
5.813,321
5.814,322
5.815,326
5.816,334
5.817,342
5.818,345
5.819,342
5.82,338
5.821,332
5.822,325
5.823,320
5.824,317
5.825,315
5.826,318
5.827,317
5.828,317
5.829,316
5.83,312
5.831,313
5.832,318
5.833,320
5.834,320
5.835,320
5.836,323
5.837,332
5.838,344
5.839,348
5.84,345
5.841,339
5.842,336
5.843,332
5.844,327
5.845,325
5.846,321
5.847,316
5.848,317
5.849,313
5.85,306
5.851,301
5.852,302
5.853,305
5.854,306
5.855,308
5.856,312
5.857,314
5.858,316
5.859,320
5.86,319
5.861,320
5.862,321
5.863,324
5.864,332
5.865,341
5.866,344
5.867,339
5.868,335
5.869,335
5.87,332
5.871,323
5.872,321
5.873,315
5.874,317
5.875,322
5.876,322
5.877,321
5.878,316
5.879,313
5.88,315
5.881,314
5.882,312
5.883,317
5.884,326
5.885,329
5.886,327
5.887,325
5.888,325
5.889,331
5.89,334
5.891,340
5.892,343
5.893,345
5.894,346
5.895,346
5.896,344
5.897,341
5.898,334
5.899,328
5.9,329
5.901,327
5.902,318
5.903,310
5.904,303
5.905,304
5.906,300
5.907,300
5.908,302
5.909,309
5.91,319
5.911,319
5.912,318
5.913,314
5.914,309
5.915,304
5.916,304
5.917,307
5.918,313
5.919,320
5.92,331
5.921,337
5.922,344
5.923,348
5.924,343
5.925,332
5.926,317
5.927,310
5.928,308
5.929,311
5.93,311
5.931,311
5.932,314
5.933,318
5.934,318
5.935,319
5.936,314
5.937,314
5.938,318
5.939,319
5.94,319
5.941,323
5.942,318
5.943,318
5.944,325
5.945,336
5.946,343
5.947,338
5.948,337
5.949,332
5.95,322
5.951,313
5.952,308
5.953,308
5.954,308
5.955,315
5.956,318
5.957,320
5.958,320
5.959,322
5.96,330
5.961,337
5.962,340
5.963,339
5.964,336
5.965,327
5.966,325
5.967,321
5.968,320
5.969,324
5.97,321
5.971,324
5.972,335
5.973,340
5.974,341
5.975,327
5.976,311
5.977,304
5.978,296
5.979,299
5.98,306
5.981,311
5.982,314
5.983,328
5.984,338
5.985,342
5.986,346
5.987,345
5.988,328
5.989,316
5.99,310
5.991,308
5.992,307
5.993,315
5.994,331
5.995,330
5.996,328
5.997,327
5.998,319
5.999,304
6,297
6.001,298
6.002,297
6.003,308
6.004,316
6.005,326
6.006,333
6.007,334
6.008,330
6.009,321
6.01,315
6.011,311
6.012,314
6.013,317
6.014,326
6.015,332
6.016,334
6.017,329
6.018,328
6.019,325
6.02,324
6.021,324
6.022,317
6.023,318
6.024,316
6.025,317
6.026,317
6.027,318
6.028,322
6.029,321
6.03,317
6.031,317
6.032,318
6.033,319
6.034,318
6.035,319
6.036,320
6.037,319
6.038,318
6.039,322
6.04,321
6.041,319
6.042,318
6.043,318
6.044,319
6.045,320
6.046,321
6.047,324
6.048,325
6.049,326
6.05,330
6.051,337
6.052,338
6.053,338
6.054,338
6.055,336
6.056,339
6.057,338
6.058,334
6.059,330
6.06,329
6.061,328
6.062,329
6.063,328
6.064,327
6.065,323
6.066,315
6.067,307
6.068,303
6.069,303
6.07,304
6.071,305
6.072,305
6.073,309
6.074,313
6.075,317
6.076,314
6.077,317
6.078,322
6.079,328
6.08,328
6.081,327
6.082,330
6.083,330
6.084,329
6.085,332
6.086,334
6.087,337
6.088,345
6.089,352
6.09,348
6.091,336
6.092,325
6.093,317
6.094,312
6.095,306
6.096,308
6.097,314
6.098,322
6.099,324
6.1,328
6.101,326
6.102,319
6.103,311
6.104,310
6.105,314
6.106,316
6.107,318
6.108,320
6.109,319
6.11,319
6.111,323
6.112,327
6.113,326
6.114,327
6.115,330
6.116,335
6.117,332
6.118,328
6.119,322
6.12,326
6.121,327
6.122,323
6.123,320
6.124,316
6.125,313
6.126,309
6.127,306
6.128,309
6.129,316
6.13,315
6.131,319
6.132,322
6.133,322
6.134,321
6.135,317
6.136,314
6.137,316
6.138,315
6.139,317
6.14,321
6.141,325
6.142,336
6.143,345
6.144,348
6.145,343
6.146,332
6.147,324
6.148,315
6.149,313
6.15,317
6.151,328
6.152,331
6.153,326
6.154,325
6.155,321
6.156,313
6.157,311
6.158,312
6.159,318
6.16,331
6.161,331
6.162,325
6.163,321
6.164,312
6.165,315
6.166,320
6.167,318
6.168,319
6.169,317
6.17,319
6.171,322
6.172,328
6.173,336
6.174,339
6.175,334
6.176,328
6.177,327
6.178,326
6.179,321
6.18,325
6.181,317
6.182,316
6.183,323
6.184,335
6.185,334
6.186,326
6.187,320
6.188,308
6.189,311
6.19,319
6.191,317
6.192,308
6.193,304
6.194,304
6.195,305
6.196,304
6.197,304
6.198,309
6.199,314
6.2,319
6.201,327
6.202,341
6.203,350
6.204,352
6.205,344
6.206,337
6.207,329
6.208,323
6.209,320
6.21,317
6.211,316
6.212,316
6.213,320
6.214,319
6.215,317
6.216,317
6.217,311
6.218,310
6.219,310
6.22,315
6.221,329
6.222,333
6.223,334
6.224,331
6.225,326
6.226,322
6.227,323
6.228,326
6.229,329
6.23,325
6.231,326
6.232,329
6.233,338
6.234,341
6.235,336
6.236,326
6.237,318
6.238,316
6.239,312
6.24,316
6.241,322
6.242,324
6.243,326
6.244,334
6.245,335
6.246,333
6.247,329
6.248,318
6.249,311
6.25,307
6.251,307
6.252,311
6.253,316
6.254,329
6.255,341
6.256,337
6.257,329
6.258,324
6.259,320
6.26,316
6.261,323
6.262,330
6.263,332
6.264,326
6.265,325
6.266,315
6.267,307
6.268,312
6.269,315
6.27,310
6.271,316
6.272,324
6.273,328
6.274,330
6.275,327
6.276,319
6.277,318
6.278,321
6.279,321
6.28,327
6.281,328
6.282,323
6.283,322
6.284,326
6.285,321
6.286,314
6.287,307
6.288,301
6.289,305
6.29,313
6.291,327
6.292,334
6.293,331
6.294,324
6.295,324
6.296,321
6.297,317
6.298,315
6.299,315
6.3,316
6.301,316
6.302,314
6.303,318
6.304,330
6.305,338
6.306,343
6.307,349
6.308,344
6.309,331
6.31,326
6.311,326
6.312,331
6.313,328
6.314,327
6.315,331
6.316,343
6.317,348
6.318,337
6.319,326
6.32,307
6.321,295
6.322,295
6.323,295
6.324,299
6.325,306
6.326,322
6.327,329
6.328,333
6.329,336
6.33,328
6.331,323
6.332,317
6.333,315
6.334,316
6.335,314
6.336,320
6.337,320
6.338,314
6.339,315
6.34,319
6.341,333
6.342,340
6.343,336
6.344,327
6.345,324
6.346,324
6.347,322
6.348,318
6.349,320
6.35,321
6.351,315
6.352,317
6.353,318
6.354,318
6.355,320
6.356,319
6.357,318
6.358,321
6.359,331
6.36,335
6.361,330
6.362,322
6.363,327
6.364,324
6.365,323
6.366,322
6.367,323
6.368,328
6.369,334
6.37,338
6.371,333
6.372,333
6.373,327
6.374,321
6.375,316
6.376,311
6.377,305
6.378,303
6.379,304
6.38,309
6.381,314
6.382,320
6.383,317
6.384,317
6.385,315
6.386,316
6.387,312
6.388,311
6.389,311
6.39,313
6.391,318
6.392,321
6.393,320
6.394,318
6.395,318
6.396,328
6.397,333
6.398,337
6.399,343
6.4,340
6.401,333
6.402,329
6.403,329
6.404,336
6.405,336
6.406,335
6.407,333
6.408,331
6.409,328
6.41,324
6.411,319
6.412,319
6.413,322
6.414,319
6.415,316
6.416,311
6.417,308
6.418,314
6.419,325
6.42,329
6.421,335
6.422,338
6.423,336
6.424,331
6.425,328
6.426,328
6.427,317
6.428,315
6.429,309
6.43,314
6.431,308
6.432,306
6.433,311
6.434,316
6.435,318
6.436,325
6.437,327
6.438,322
6.439,320
6.44,325
6.441,326
6.442,314
6.443,313
6.444,318
6.445,325
6.446,328
6.447,330
6.448,327
6.449,327
6.45,320
6.451,316
6.452,318
6.453,328
6.454,337
6.455,336
6.456,328
6.457,316
6.458,309
6.459,307
6.46,313
6.461,323
6.462,333
6.463,336
6.464,337
6.465,330
6.466,321
6.467,316
6.468,317
6.469,317
6.47,316
6.471,314
6.472,313
6.473,316
6.474,318
6.475,317
6.476,322
6.477,321
6.478,322
6.479,326
6.48,338
6.481,344
6.482,341
6.483,329
6.484,319
6.485,313
6.486,309
6.487,310
6.488,319
6.489,325
6.49,332
6.491,334
6.492,324
6.493,318
6.494,315
6.495,317
6.496,321
6.497,328
6.498,328
6.499,332
6.5,327
6.501,317
6.502,313
6.503,311
6.504,311
6.505,314
6.506,318
6.507,330
6.508,335
6.509,326
6.51,327
6.511,324
6.512,329
6.513,335
6.514,332
6.515,322
6.516,313
6.517,310
6.518,306
6.519,311
6.52,320
6.521,325
6.522,329
6.523,330
6.524,329
6.525,324
6.526,318
6.527,317
6.528,316
6.529,318
6.53,318
6.531,319
6.532,316
6.533,321
6.534,324
6.535,321
6.536,320
6.537,333
6.538,344
6.539,353
6.54,354
6.541,349
6.542,335
6.543,324
6.544,314
6.545,310
6.546,309
6.547,311
6.548,317
6.549,320
6.55,321
6.551,321
6.552,326
6.553,324
6.554,324
6.555,319
6.556,312
6.557,307
6.558,309
6.559,313
6.56,317
6.561,328
6.562,335
6.563,339
6.564,336
6.565,336
6.566,333
6.567,318
6.568,321
6.569,323
6.57,313
6.571,317
6.572,322
6.573,323
6.574,314
6.575,306
6.576,306
6.577,312
6.578,329
6.579,339
6.58,339
6.581,335
6.582,321
6.583,330
6.584,329
6.585,327
6.586,328
6.587,327
6.588,319
6.589,316
6.59,320
6.591,315
6.592,308
6.593,313
6.594,325
6.595,337
6.596,330
6.597,319
6.598,316
6.599,321
6.6,322
6.601,327
6.602,326
6.603,321
6.604,320
6.605,309
6.606,309
6.607,312
6.608,313
6.609,317
6.61,312
6.611,326
6.612,346
6.613,357
6.614,351
6.615,335
6.616,327
6.617,318
6.618,311
6.619,306
6.62,305
6.621,307
6.622,312
6.623,314
6.624,316
6.625,317
6.626,323
6.627,326
6.628,333
6.629,329
6.63,322
6.631,320
6.632,319
6.633,325
6.634,327
6.635,331
6.636,339
6.637,347
6.638,345
6.639,340
6.64,328
6.641,312
6.642,304
6.643,297
6.644,300
6.645,304
6.646,310
6.647,307
6.648,303
6.649,309
6.65,318
6.651,331
6.652,340
6.653,349
6.654,346
6.655,340
6.656,345
6.657,331
6.658,311
6.659,301
6.66,315
6.661,318
6.662,312
6.663,307
6.664,307
6.665,313
6.666,326
6.667,330
6.668,331
6.669,337
6.67,340
6.671,342
6.672,339
6.673,332
6.674,321
6.675,314
6.676,315
6.677,319
6.678,321
6.679,325
6.68,334
6.681,337
6.682,335
6.683,323
6.684,319
6.685,310
6.686,306
6.687,309
6.688,307
6.689,313
6.69,320
6.691,319
6.692,318
6.693,317
6.694,323
6.695,324
6.696,325
6.697,326
6.698,328
6.699,324
6.7,318
6.701,313
6.702,307
6.703,308
6.704,308
6.705,315
6.706,324
6.707,335
6.708,343
6.709,346
6.71,338
6.711,329
6.712,322
6.713,316
6.714,315
6.715,315
6.716,317
6.717,321
6.718,322
6.719,322
6.72,325
6.721,327
6.722,328
6.723,330
6.724,332
6.725,336
6.726,341
6.727,336
6.728,326
6.729,328
6.73,333
6.731,322
6.732,305
6.733,304
6.734,313
6.735,327
6.736,337
6.737,335
6.738,333
6.739,322
6.74,312
6.741,306
6.742,301
6.743,305
6.744,313
6.745,320
6.746,328
6.747,332
6.748,330
6.749,318
6.75,318
6.751,324
6.752,329
6.753,327
6.754,330
6.755,332
6.756,331
6.757,328
6.758,323
6.759,308
6.76,304
6.761,307
6.762,313
6.763,323
6.764,334
6.765,342
6.766,334
6.767,323
6.768,315
6.769,308
6.77,304
6.771,308
6.772,315
6.773,325
6.774,331
6.775,332
6.776,329
6.777,331
6.778,329
6.779,337
6.78,340
6.781,337
6.782,332
6.783,320
6.784,318
6.785,314
6.786,311
6.787,312
6.788,314
6.789,319
6.79,324
6.791,339
6.792,347
6.793,349
6.794,351
6.795,336
6.796,323
6.797,313
6.798,312
6.799,310
6.8,315
6.801,325
6.802,328
6.803,330
6.804,330
6.805,324
6.806,316
6.807,305
6.808,298
6.809,304
6.81,311
6.811,318
6.812,317
6.813,312
6.814,314
6.815,313
6.816,319
6.817,324
6.818,325
6.819,318
6.82,318
6.821,328
6.822,324
6.823,322
6.824,320
6.825,320
6.826,324
6.827,323
6.828,322
6.829,321
6.83,320
6.831,316
6.832,314
6.833,310
6.834,311
6.835,316
6.836,321
6.837,328
6.838,331
6.839,326
6.84,322
6.841,322
6.842,327
6.843,324
6.844,320
6.845,322
6.846,332
6.847,343
6.848,340
6.849,331
6.85,321
6.851,317
6.852,320
6.853,324
6.854,335
6.855,344
6.856,340
6.857,340
6.858,331
6.859,321
6.86,311
6.861,308
6.862,312
6.863,312
6.864,311
6.865,314
6.866,320
6.867,320
6.868,318
6.869,319
6.87,320
6.871,324
6.872,320
6.873,324
6.874,322
6.875,319
6.876,321
6.877,329
6.878,338
6.879,340
6.88,347
6.881,337
6.882,324
6.883,314
6.884,315
6.885,307
6.886,302
6.887,307
6.888,314
6.889,311
6.89,310
6.891,316
6.892,325
6.893,332
6.894,334
6.895,328
6.896,330
6.897,322
6.898,322
6.899,319
6.9,320
6.901,327
6.902,335
6.903,340
6.904,340
6.905,346
6.906,350
6.907,338
6.908,320
6.909,312
6.91,303
6.911,302
6.912,307
6.913,307
6.914,312
6.915,322
6.916,320
6.917,321
6.918,320
6.919,319
6.92,318
6.921,317
6.922,312
6.923,309
6.924,315
6.925,321
6.926,332
6.927,343
6.928,345
6.929,346
6.93,339
6.931,336
6.932,331
6.933,331
6.934,335
6.935,323
6.936,327
6.937,330
6.938,330
6.939,329
6.94,320
6.941,314
6.942,309
6.943,300
6.944,302
6.945,311
6.946,319
6.947,321
6.948,321
6.949,322
6.95,323
6.951,324
6.952,325
6.953,324
6.954,323
6.955,324
6.956,327
6.957,336
6.958,331
6.959,328
6.96,325
6.961,323
6.962,329
6.963,327
6.964,326
6.965,320
6.966,322
6.967,321
6.968,319
6.969,315
6.97,315
6.971,312
6.972,310
6.973,315
6.974,319
6.975,326
6.976,332
6.977,331
6.978,320
6.979,314
6.98,316
6.981,320
6.982,320
6.983,324
6.984,328
6.985,332
6.986,327
6.987,325
6.988,313
6.989,309
6.99,315
6.991,320
6.992,329
6.993,343
6.994,341
6.995,337
6.996,331
6.997,325
6.998,318
6.999,310
7,310
7.001,310
7.002,315
7.003,323
7.004,327
7.005,324
7.006,324
7.007,322
7.008,322
7.009,319
7.01,320
7.011,320
7.012,317
7.013,321
7.014,332
7.015,340
7.016,338
7.017,334
7.018,331
7.019,324
7.02,320
7.021,321
7.022,319
7.023,322
7.024,324
7.025,329
7.026,328
7.027,327
7.028,336
7.029,329
7.03,322
7.031,321
7.032,319
7.033,318
7.034,322
7.035,328
7.036,328
7.037,323
7.038,317
7.039,321
7.04,326
7.041,331
7.042,325
7.043,317
7.044,311
7.045,309
7.046,308
7.047,307
7.048,311
7.049,315
7.05,322
7.051,331
7.052,342
7.053,342
7.054,328
7.055,330
7.056,327
7.057,319
7.058,315
7.059,315
7.06,318
7.061,332
7.062,332
7.063,330
7.064,318
7.065,316
7.066,321
7.067,320
7.068,321
7.069,326
7.07,331
7.071,328
7.072,324
7.073,319
7.074,320
7.075,322
7.076,324
7.077,323
7.078,318
7.079,322
7.08,321
7.081,322
7.082,323
7.083,322
7.084,322
7.085,327
7.086,326
7.087,323
7.088,321
7.089,320
7.09,317
7.091,313
7.092,308
7.093,310
7.094,323
7.095,330
7.096,337
7.097,333
7.098,324
7.099,318
7.1,316
7.101,316
7.102,325
7.103,330
7.104,325
7.105,324
7.106,318
7.107,317
7.108,318
7.109,323
7.11,334
7.111,338
7.112,339
7.113,331
7.114,324
7.115,326
7.116,322
7.117,327
7.118,331
7.119,335
7.12,332
7.121,331
7.122,332
7.123,331
7.124,321
7.125,313
7.126,315
7.127,306
7.128,307
7.129,311
7.13,325
7.131,333
7.132,330
7.133,320
7.134,318
7.135,320
7.136,323
7.137,326
7.138,319
7.139,318
7.14,327
7.141,332
7.142,332
7.143,332
7.144,331
7.145,316
7.146,307
7.147,308
7.148,311
7.149,313
7.15,310
7.151,314
7.152,314
7.153,319
7.154,324
7.155,331
7.156,332
7.157,322
7.158,322
7.159,314
7.16,304
7.161,306
7.162,319
7.163,328
7.164,327
7.165,328
7.166,330
7.167,336
7.168,332
7.169,329
7.17,326
7.171,322
7.172,318
7.173,320
7.174,325
7.175,331
7.176,337
7.177,332
7.178,325
7.179,322
7.18,324
7.181,323
7.182,323
7.183,320
7.184,321
7.185,328
7.186,336
7.187,334
7.188,333
7.189,334
7.19,321
7.191,309
7.192,304
7.193,306
7.194,311
7.195,322
7.196,322
7.197,326
7.198,334
7.199,342
7.2,343
7.201,340
7.202,334
7.203,329
7.204,324
7.205,316
7.206,312
7.207,317
7.208,319
7.209,321
7.21,320
7.211,320
7.212,328
7.213,337
7.214,330
7.215,322
7.216,310
7.217,304
7.218,306
7.219,314
7.22,324
7.221,332
7.222,338
7.223,337
7.224,336
7.225,333
7.226,332
7.227,326
7.228,319
7.229,313
7.23,312
7.231,303
7.232,301
7.233,296
7.234,296
7.235,296
7.236,303
7.237,320
7.238,330
7.239,335
7.24,340
7.241,350
7.242,351
7.243,348
7.244,348
7.245,339
7.246,329
7.247,323
7.248,319
7.249,323
7.25,318
7.251,317
7.252,317
7.253,320
7.254,325
7.255,321
7.256,319
7.257,315
7.258,307
7.259,312
7.26,315
7.261,320
7.262,322
7.263,330
7.264,328
7.265,322
7.266,321
7.267,324
7.268,323
7.269,315
7.27,325
7.271,339
7.272,336
7.273,329
7.274,320
7.275,315
7.276,311
7.277,309
7.278,310
7.279,308
7.28,310
7.281,335
7.282,350
7.283,340
7.284,342
7.285,344
7.286,326
7.287,313
7.288,300
7.289,297
7.29,297
7.291,300
7.292,299
7.293,303
7.294,318
7.295,327
7.296,327
7.297,326
7.298,323
7.299,325
7.3,323
7.301,324
7.302,320
7.303,319
7.304,327
7.305,328
7.306,338
7.307,335
7.308,335
7.309,331
7.31,325
7.311,320
7.312,316
7.313,313
7.314,318
7.315,322
7.316,323
7.317,322
7.318,319
7.319,322
7.32,319
7.321,311
7.322,312
7.323,312
7.324,315
7.325,330
7.326,349
7.327,356
7.328,360
7.329,352
7.33,332
7.331,320
7.332,314
7.333,312
7.334,312
7.335,312
7.336,318
7.337,326
7.338,329
7.339,328
7.34,320
7.341,310
7.342,305
7.343,300
7.344,301
7.345,309
7.346,317
7.347,319
7.348,320
7.349,323
7.35,331
7.351,336
7.352,338
7.353,334
7.354,334
7.355,329
7.356,330
7.357,332
7.358,326
7.359,328
7.36,324
7.361,321
7.362,322
7.363,316
7.364,315
7.365,322
7.366,316
7.367,311
7.368,311
7.369,320
7.37,322
7.371,324
7.372,325
7.373,327
7.374,322
7.375,319
7.376,310
7.377,310
7.378,315
7.379,323
7.38,322
7.381,319
7.382,318
7.383,314
7.384,317
7.385,316
7.386,318
7.387,326
7.388,332
7.389,337
7.39,345
7.391,336
7.392,335
7.393,333
7.394,332
7.395,340
7.396,339
7.397,339
7.398,333
7.399,335
7.4,338
7.401,337
7.402,326
7.403,315
7.404,310
7.405,309
7.406,306
7.407,314
7.408,312
7.409,315
7.41,323
7.411,321
7.412,324
7.413,330
7.414,330
7.415,330
7.416,329
7.417,325
7.418,317
7.419,308
7.42,300
7.421,301
7.422,304
7.423,318
7.424,326
7.425,329
7.426,336
7.427,342
7.428,336
7.429,325
7.43,321
7.431,313
7.432,307
7.433,309
7.434,310
7.435,308
7.436,315
7.437,325
7.438,328
7.439,340
7.44,336
7.441,327
7.442,324
7.443,318
7.444,309
7.445,310
7.446,318
7.447,325
7.448,328
7.449,329
7.45,339
7.451,337
7.452,325
7.453,325
7.454,317
7.455,317
7.456,314
7.457,311
7.458,320
7.459,329
7.46,342
7.461,340
7.462,336
7.463,338
7.464,343
7.465,332
7.466,326
7.467,316
7.468,314
7.469,313
7.47,309
7.471,312
7.472,315
7.473,316
7.474,325
7.475,338
7.476,342
7.477,335
7.478,324
7.479,318
7.48,313
7.481,308
7.482,310
7.483,306
7.484,306
7.485,313
7.486,317
7.487,319
7.488,320
7.489,324
7.49,325
7.491,325
7.492,323
7.493,321
7.494,323
7.495,326
7.496,328
7.497,330
7.498,325
7.499,325
7.5,329
7.501,326
7.502,326
7.503,333
7.504,338
7.505,344
7.506,334
7.507,318
7.508,316
7.509,314
7.51,311
7.511,309
7.512,320
7.513,330
7.514,334
7.515,331
7.516,326
7.517,323
7.518,317
7.519,311
7.52,310
7.521,323
7.522,327
7.523,321
7.524,316
7.525,323
7.526,325
7.527,328
7.528,329
7.529,333
7.53,330
7.531,322
7.532,318
7.533,315
7.534,309
7.535,308
7.536,314
7.537,321
7.538,320
7.539,331
7.54,345
7.541,349
7.542,339
7.543,324
7.544,315
7.545,313
7.546,302
7.547,301
7.548,306
7.549,314
7.55,324
7.551,333
7.552,331
7.553,330
7.554,327
7.555,324
7.556,325
7.557,323
7.558,318
7.559,316
7.56,317
7.561,319
7.562,331
7.563,339
7.564,346
7.565,339
7.566,334
7.567,331
7.568,320
7.569,315
7.57,315
7.571,306
7.572,306
7.573,308
7.574,307
7.575,310
7.576,315
7.577,318
7.578,319
7.579,327
7.58,330
7.581,326
7.582,322
7.583,317
7.584,320
7.585,320
7.586,330
7.587,334
7.588,332
7.589,335
7.59,335
7.591,332
7.592,325
7.593,311
7.594,304
7.595,305
7.596,313
7.597,323
7.598,326
7.599,338
7.6,337
7.601,333
7.602,329
7.603,325
7.604,326
7.605,329
7.606,328
7.607,327
7.608,315
7.609,321
7.61,326
7.611,329
7.612,323
7.613,309
7.614,313
7.615,312
7.616,309
7.617,306
7.618,310
7.619,321
7.62,330
7.621,339
7.622,336
7.623,333
7.624,329
7.625,331
7.626,337
7.627,332
7.628,321
7.629,320
7.63,322
7.631,318
7.632,312
7.633,320
7.634,326
7.635,334
7.636,338
7.637,333
7.638,325
7.639,320
7.64,310
7.641,301
7.642,294
7.643,303
7.644,310
7.645,326
7.646,341
7.647,344
7.648,339
7.649,332
7.65,320
7.651,314
7.652,314
7.653,310
7.654,308
7.655,312
7.656,324
7.657,334
7.658,338
7.659,342
7.66,346
7.661,339
7.662,324
7.663,313
7.664,311
7.665,317
7.666,321
7.667,327
7.668,335
7.669,337
7.67,333
7.671,324
7.672,313
7.673,307
7.674,310
7.675,316
7.676,314
7.677,318
7.678,335
7.679,343
7.68,341
7.681,337
7.682,333
7.683,331
7.684,315
7.685,310
7.686,306
7.687,318
7.688,322
7.689,318
7.69,320
7.691,318
7.692,314
7.693,318
7.694,321
7.695,324
7.696,321
7.697,326
7.698,335
7.699,331
7.7,334
7.701,326
7.702,322
7.703,326
7.704,326
7.705,331
7.706,331
7.707,332
7.708,332
7.709,325
7.71,323
7.711,312
7.712,308
7.713,311
7.714,313
7.715,315
7.716,314
7.717,318
7.718,318
7.719,313
7.72,316
7.721,324
7.722,326
7.723,323
7.724,321
7.725,322
7.726,323
7.727,320
7.728,322
7.729,317
7.73,323
7.731,324
7.732,326
7.733,328
7.734,325
7.735,330
7.736,343
7.737,351
7.738,350
7.739,347
7.74,339
7.741,327
7.742,312
7.743,304
7.744,304
7.745,309
7.746,312
7.747,307
7.748,308
7.749,323
7.75,330
7.751,337
7.752,334
7.753,322
7.754,321
7.755,317
7.756,313
7.757,318
7.758,315
7.759,320
7.76,332
7.761,327
7.762,326
7.763,330
7.764,336
7.765,336
7.766,328
7.767,329
7.768,332
7.769,328
7.77,321
7.771,316
7.772,312
7.773,310
7.774,318
7.775,325
7.776,329
7.777,332
7.778,328
7.779,324
7.78,311
7.781,309
7.782,316
7.783,315
7.784,320
7.785,313
7.786,310
7.787,316
7.788,322
7.789,328
7.79,328
7.791,328
7.792,334
7.793,343
7.794,342
7.795,334
7.796,328
7.797,330
7.798,331
7.799,331
7.8,326
7.801,326
7.802,320
7.803,309
7.804,308
7.805,310
7.806,314
7.807,315
7.808,311
7.809,316
7.81,327
7.811,335
7.812,341
7.813,342
7.814,336
7.815,332
7.816,327
7.817,321
7.818,314
7.819,314
7.82,319
7.821,330
7.822,332
7.823,329
7.824,327
7.825,328
7.826,322
7.827,310
7.828,298
7.829,300
7.83,308
7.831,319
7.832,327
7.833,333
7.834,333
7.835,327
7.836,324
7.837,324
7.838,328
7.839,326
7.84,333
7.841,328
7.842,319
7.843,312
7.844,321
7.845,323
7.846,330
7.847,339
7.848,336
7.849,335
7.85,332
7.851,336
7.852,327
7.853,317
7.854,314
7.855,317
7.856,320
7.857,315
7.858,316
7.859,309
7.86,308
7.861,317
7.862,325
7.863,325
7.864,335
7.865,347
7.866,354
7.867,343
7.868,321
7.869,314
7.87,312
7.871,312
7.872,312
7.873,313
7.874,314
7.875,316
7.876,317
7.877,330
7.878,343
7.879,349
7.88,344
7.881,337
7.882,327
7.883,308
7.884,300
7.885,303
7.886,306
7.887,316
7.888,320
7.889,326
7.89,328
7.891,328
7.892,327
7.893,329
7.894,331
7.895,320
7.896,312
7.897,314
7.898,322
7.899,327
7.9,327
7.901,327
7.902,326
7.903,326
7.904,321
7.905,317
7.906,324
7.907,328
7.908,333
7.909,340
7.91,343
7.911,338
7.912,331
7.913,318
7.914,305
7.915,296
7.916,292
7.917,297
7.918,302
7.919,311
7.92,315
7.921,318
7.922,325
7.923,337
7.924,332
7.925,330
7.926,337
7.927,337
7.928,326
7.929,323
7.93,320
7.931,308
7.932,313
7.933,320
7.934,325
7.935,334
7.936,347
7.937,352
7.938,347
7.939,341
7.94,332
7.941,316
7.942,306
7.943,300
7.944,297
7.945,304
7.946,307
7.947,313
7.948,314
7.949,311
7.95,316
7.951,326
7.952,331
7.953,328
7.954,329
7.955,331
7.956,330
7.957,334
7.958,328
7.959,327
7.96,332
7.961,336
7.962,335
7.963,327
7.964,326
7.965,329
7.966,327
7.967,326
7.968,323
7.969,327
7.97,323
7.971,320
7.972,320
7.973,319
7.974,321
7.975,326
7.976,323
7.977,324
7.978,326
7.979,329
7.98,325
7.981,326
7.982,321
7.983,322
7.984,330
7.985,333
7.986,341
7.987,336
7.988,322
7.989,320
7.99,312
7.991,314
7.992,316
7.993,320
7.994,322
7.995,323
7.996,323
7.997,333
7.998,332
7.999,320
8,318
8.001,314
8.002,306
8.003,311
8.004,319
8.005,318
8.006,328
8.007,330
8.008,323
8.009,319
8.01,320
8.011,324
8.012,320
8.013,326
8.014,330
8.015,331
8.016,333
8.017,331
8.018,327
8.019,323
8.02,319
8.021,323
8.022,318
8.023,314
8.024,311
8.025,315
8.026,317
8.027,330
8.028,341
8.029,345
8.03,347
8.031,342
8.032,330
8.033,323
8.034,326
8.035,331
8.036,333
8.037,328
8.038,328
8.039,327
8.04,332
8.041,333
8.042,332
8.043,337
8.044,336
8.045,321
8.046,313
8.047,312
8.048,310
8.049,306
8.05,302
8.051,308
8.052,317
8.053,318
8.054,315
8.055,315
8.056,315
8.057,320
8.058,336
8.059,346
8.06,342
8.061,339
8.062,326
8.063,313
8.064,309
8.065,305
8.066,307
8.067,318
8.068,324
8.069,322
8.07,329
8.071,327
8.072,315
8.073,315
8.074,317
8.075,323
8.076,322
8.077,322
8.078,320
8.079,321
8.08,326
8.081,330
8.082,324
8.083,333
8.084,341
8.085,338
8.086,332
8.087,329
8.088,325
8.089,322
8.09,306
8.091,308
8.092,316
8.093,315
8.094,319
8.095,320
8.096,318
8.097,318
8.098,316
8.099,327
8.1,330
8.101,330
8.102,329
8.103,326
8.104,328
8.105,331
8.106,336
8.107,344
8.108,338
8.109,323
8.11,309
8.111,303
8.112,308
8.113,318
8.114,327
8.115,330
8.116,335
8.117,341
8.118,340
8.119,345
8.12,342
8.121,325
8.122,309
8.123,298
8.124,291
8.125,298
8.126,300
8.127,306
8.128,318
8.129,322
8.13,326
8.131,325
8.132,318
8.133,319
8.134,324
8.135,324
8.136,326
8.137,326
8.138,320
8.139,320
8.14,323
8.141,322
8.142,320
8.143,327
8.144,325
8.145,319
8.146,310
8.147,310
8.148,320
8.149,322
8.15,322
8.151,317
8.152,313
8.153,314
8.154,319
8.155,322
8.156,338
8.157,350
8.158,340
8.159,328
8.16,320
8.161,324
8.162,324
8.163,324
8.164,320
8.165,315
8.166,316
8.167,320
8.168,324
8.169,327
8.17,327
8.171,332
8.172,331
8.173,331
8.174,328
8.175,327
8.176,320
8.177,316
8.178,321
8.179,322
8.18,327
8.181,332
8.182,339
8.183,336
8.184,335
8.185,333
8.186,323
8.187,319
8.188,313
8.189,310
8.19,308
8.191,308
8.192,314
8.193,326
8.194,326
8.195,327
8.196,332
8.197,336
8.198,334
8.199,330
8.2,323
8.201,315
8.202,310
8.203,310
8.204,313
8.205,314
8.206,320
8.207,330
8.208,333
8.209,328
8.21,329
8.211,337
8.212,341
8.213,337
8.214,326
8.215,321
8.216,315
8.217,312
8.218,308
8.219,304
8.22,304
8.221,308
8.222,321
8.223,330
8.224,333
8.225,325
8.226,326
8.227,334
8.228,327
8.229,317
8.23,319
8.231,311
8.232,311
8.233,319
8.234,315
8.235,323
8.236,323
8.237,325
8.238,330
8.239,332
8.24,336
8.241,340
8.242,337
8.243,331
8.244,321
8.245,313
8.246,305
8.247,301
8.248,306
8.249,311
8.25,312
8.251,323
8.252,327
8.253,319
8.254,315
8.255,317
8.256,325
8.257,336
8.258,342
8.259,349
8.26,348
8.261,343
8.262,335
8.263,323
8.264,312
8.265,307
8.266,305
8.267,307
8.268,308
8.269,312
8.27,317
8.271,314
8.272,307
8.273,302
8.274,299
8.275,302
8.276,314
8.277,318
8.278,323
8.279,332
8.28,343
8.281,355
8.282,368
8.283,378
8.284,375
8.285,360
8.286,342
8.287,326
8.288,312
8.289,303
8.29,297
8.291,297
8.292,306
8.293,307
8.294,304
8.295,315
8.296,325
8.297,328
8.298,333
8.299,326
8.3,331
8.301,335
8.302,337
8.303,321
8.304,310
8.305,316
8.306,319
8.307,325
8.308,332
8.309,333
8.31,334
8.311,328
8.312,314
8.313,298
8.314,299
8.315,305
8.316,307
8.317,311
8.318,316
8.319,325
8.32,338
8.321,348
8.322,343
8.323,335
8.324,327
8.325,324
8.326,320
8.327,316
8.328,314
8.329,312
8.33,316
8.331,324
8.332,329
8.333,330
8.334,325
8.335,325
8.336,319
8.337,320
8.338,321
8.339,324
8.34,338
8.341,345
8.342,340
8.343,340
8.344,338
8.345,333
8.346,329
8.347,322
8.348,318
8.349,323
8.35,325
8.351,331
8.352,335
8.353,337
8.354,341
8.355,341
8.356,333
8.357,324
8.358,316
8.359,303
8.36,297
8.361,298
8.362,304
8.363,312
8.364,314
8.365,318
8.366,324
8.367,336
8.368,328
8.369,316
8.37,313
8.371,310
8.372,313
8.373,323
8.374,326
8.375,324
8.376,318
8.377,308
8.378,313
8.379,336
8.38,341
8.381,332
8.382,332
8.383,322
8.384,313
8.385,310
8.386,304
8.387,303
8.388,305
8.389,309
8.39,313
8.391,316
8.392,314
8.393,322
8.394,334
8.395,348
8.396,353
8.397,344
8.398,338
8.399,327
8.4,319
8.401,314
8.402,308
8.403,306
8.404,313
8.405,318
8.406,317
8.407,313
8.408,312
8.409,311
8.41,310
8.411,313
8.412,314
8.413,319
8.414,324
8.415,325
8.416,327
8.417,336
8.418,338
8.419,334
8.42,331
8.421,332
8.422,330
8.423,324
8.424,326
8.425,331
8.426,335
8.427,339
8.428,339
8.429,332
8.43,321
8.431,316
8.432,307
8.433,302
8.434,304
8.435,304
8.436,303
8.437,313
8.438,325
8.439,338
8.44,343
8.441,343
8.442,351
8.443,349
8.444,338
8.445,327
8.446,311
8.447,302
8.448,304
8.449,305
8.45,309
8.451,318
8.452,324
8.453,317
8.454,317
8.455,318
8.456,316
8.457,311
8.458,320
8.459,326
8.46,327
8.461,327
8.462,328
8.463,322
8.464,316
8.465,318
8.466,319
8.467,317
8.468,330
8.469,334
8.47,333
8.471,330
8.472,319
8.473,317
8.474,327
8.475,339
8.476,347
8.477,342
8.478,327
8.479,309
8.48,303
8.481,310
8.482,320
8.483,327
8.484,336
8.485,341
8.486,336
8.487,332
8.488,323
8.489,317
8.49,318
8.491,325
8.492,327
8.493,324
8.494,326
8.495,331
8.496,329
8.497,324
8.498,321
8.499,323
8.5,321
8.501,314
8.502,316
8.503,315
8.504,313
8.505,314
8.506,309
8.507,305
8.508,306
8.509,305
8.51,307
8.511,315
8.512,315
8.513,312
8.514,316
8.515,324
8.516,330
8.517,351
8.518,360
8.519,355
8.52,347
8.521,334
8.522,320
8.523,310
8.524,308
8.525,315
8.526,325
8.527,323
8.528,321
8.529,324
8.53,314
8.531,318
8.532,320
8.533,320
8.534,324
8.535,330
8.536,329
8.537,317
8.538,309
8.539,307
8.54,303
8.541,303
8.542,305
8.543,304
8.544,314
8.545,325
8.546,335
8.547,340
8.548,336
8.549,329
8.55,320
8.551,314
8.552,311
8.553,315
8.554,322
8.555,329
8.556,336
8.557,340
8.558,340
8.559,334
8.56,330
8.561,327
8.562,321
8.563,317
8.564,316
8.565,316
8.566,321
8.567,322
8.568,319
8.569,322
8.57,327
8.571,331
8.572,337
8.573,340
8.574,343
8.575,341
8.576,334
8.577,322
8.578,320
8.579,317
8.58,314
8.581,314
8.582,314
8.583,311
8.584,305
8.585,308
8.586,311
8.587,315
8.588,326
8.589,326
8.59,314
8.591,311
8.592,325
8.593,346
8.594,354
8.595,348
8.596,341
8.597,334
8.598,323
8.599,318
8.6,319
8.601,320
8.602,313
8.603,312
8.604,318
8.605,326
8.606,322
8.607,321
8.608,326
8.609,330
8.61,330
8.611,326
8.612,325
8.613,325
8.614,324
8.615,328
8.616,331
8.617,334
8.618,331
8.619,323
8.62,317
8.621,310
8.622,310
8.623,311
8.624,311
8.625,313
8.626,315
8.627,323
8.628,322
8.629,327
8.63,328
8.631,324
8.632,323
8.633,321
8.634,317
8.635,323
8.636,328
8.637,333
8.638,333
8.639,324
8.64,321
8.641,313
8.642,309
8.643,308
8.644,311
8.645,316
8.646,323
8.647,331
8.648,337
8.649,340
8.65,342
8.651,341
8.652,337
8.653,339
8.654,335
8.655,328
8.656,323
8.657,326
8.658,326
8.659,323
8.66,314
8.661,306
8.662,306
8.663,305
8.664,313
8.665,328
8.666,339
8.667,350
8.668,357
8.669,356
8.67,351
8.671,339
8.672,327
8.673,316
8.674,312
8.675,313
8.676,308
8.677,306
8.678,313
8.679,318
8.68,323
8.681,326
8.682,330
8.683,329
8.684,324
8.685,319
8.686,321
8.687,317
8.688,316
8.689,316
8.69,323
8.691,330
8.692,329
8.693,323
8.694,325
8.695,319
8.696,317
8.697,315
8.698,317
8.699,316
8.7,311
8.701,314
8.702,318
8.703,323
8.704,323
8.705,325
8.706,322
8.707,324
8.708,328
8.709,326
8.71,330
8.711,333
8.712,330
8.713,324
8.714,318
8.715,309
8.716,307
8.717,306
8.718,309
8.719,313
8.72,318
8.721,317
8.722,319
8.723,324
8.724,333
8.725,332
8.726,335
8.727,334
8.728,338
8.729,336
8.73,332
8.731,332
8.732,334
8.733,335
8.734,343
8.735,344
8.736,345
8.737,336
8.738,335
8.739,332
8.74,325
8.741,316
8.742,306
8.743,313
8.744,311
8.745,311
8.746,319
8.747,322
8.748,314
8.749,314
8.75,316
8.751,313
8.752,310
8.753,306
8.754,312
8.755,320
8.756,328
8.757,331
8.758,341
8.759,341
8.76,335
8.761,326
8.762,316
8.763,304
8.764,303
8.765,306
8.766,305
8.767,313
8.768,324
8.769,333
8.77,338
8.771,337
8.772,329
8.773,321
8.774,317
8.775,315
8.776,314
8.777,323
8.778,329
8.779,329
8.78,334
8.781,328
8.782,317
8.783,316
8.784,314
8.785,312
8.786,307
8.787,312
8.788,316
8.789,322
8.79,326
8.791,322
8.792,324
8.793,327
8.794,329
8.795,333
8.796,345
8.797,351
8.798,354
8.799,353
8.8,342
8.801,326
8.802,311
8.803,307
8.804,307
8.805,320
8.806,331
8.807,331
8.808,332
8.809,328
8.81,324
8.811,315
8.812,311
8.813,311
8.814,308
8.815,309
8.816,314
8.817,323
8.818,328
8.819,328
8.82,325
8.821,326
8.822,332
8.823,338
8.824,336
8.825,329
8.826,325
8.827,320
8.828,315
8.829,311
8.83,308
8.831,307
8.832,307
8.833,303
8.834,306
8.835,306
8.836,302
8.837,309
8.838,317
8.839,324
8.84,334
8.841,343
8.842,348
8.843,344
8.844,338
8.845,332
8.846,327
8.847,324
8.848,325
8.849,333
8.85,337
8.851,336
8.852,327
8.853,315
8.854,315
8.855,311
8.856,312
8.857,317
8.858,327
8.859,333
8.86,337
8.861,338
8.862,338
8.863,336
8.864,329
8.865,323
8.866,315
8.867,311
8.868,318
8.869,327
8.87,338
8.871,347
8.872,349
8.873,339
8.874,321
8.875,310
8.876,299
8.877,295
8.878,298
8.879,312
8.88,327
8.881,336
8.882,344
8.883,345
8.884,341
8.885,339
8.886,330
8.887,323
8.888,319
8.889,317
8.89,315
8.891,314
8.892,308
8.893,309
8.894,308
8.895,310
8.896,311
8.897,313
8.898,310
8.899,304
8.9,312
8.901,312
8.902,307
8.903,312
8.904,318
8.905,329
8.906,332
8.907,342
8.908,337
8.909,316
8.91,312
8.911,311
8.912,310
8.913,315
8.914,331
8.915,344
8.916,346
8.917,341
8.918,336
8.919,326
8.92,320
8.921,312
8.922,307
8.923,311
8.924,318
8.925,320
8.926,325
8.927,319
8.928,320
8.929,327
8.93,326
8.931,325
8.932,323
8.933,323
8.934,320
8.935,316
8.936,313
8.937,311
8.938,313
8.939,311
8.94,319
8.941,327
8.942,336
8.943,333
8.944,335
8.945,335
8.946,331
8.947,336
8.948,333
8.949,320
8.95,316
8.951,302
8.952,303
8.953,311
8.954,313
8.955,313
8.956,319
8.957,322
8.958,327
8.959,331
8.96,332
8.961,335
8.962,334
8.963,330
8.964,332
8.965,325
8.966,324
8.967,320
8.968,313
8.969,309
8.97,305
8.971,318
8.972,318
8.973,321
8.974,326
8.975,332
8.976,331
8.977,326
8.978,329
8.979,334
8.98,328
8.981,329
8.982,325
8.983,327
8.984,330
8.985,332
8.986,326
8.987,335
8.988,332
8.989,331
8.99,334
8.991,328
8.992,321
8.993,317
8.994,313
8.995,307
8.996,302
8.997,296
8.998,300
8.999,307
9,313
9.001,321
9.002,327
9.003,327
9.004,328
9.005,328
9.006,333
9.007,327
9.008,326
9.009,323
9.01,321
9.011,324
9.012,321
9.013,320
9.014,328
9.015,337
9.016,337
9.017,332
9.018,327
9.019,323
9.02,320
9.021,319
9.022,320
9.023,317
9.024,316
9.025,316
9.026,315
9.027,320
9.028,326
9.029,325
9.03,327
9.031,332
9.032,345
9.033,348
9.034,345
9.035,337
9.036,329
9.037,328
9.038,332
9.039,329
9.04,319
9.041,309
9.042,306
9.043,304
9.044,310
9.045,314
9.046,322
9.047,334
9.048,340
9.049,337
9.05,331
9.051,319
9.052,313
9.053,312
9.054,308
9.055,308
9.056,318
9.057,318
9.058,322
9.059,326
9.06,328
9.061,319
9.062,303
9.063,307
9.064,309
9.065,313
9.066,319
9.067,329
9.068,329
9.069,340
9.07,347
9.071,350
9.072,346
9.073,343
9.074,337
9.075,324
9.076,310
9.077,302
9.078,303
9.079,304
9.08,305
9.081,310
9.082,320
9.083,319
9.084,322
9.085,324
9.086,324
9.087,330
9.088,332
9.089,330
9.09,338
9.091,333
9.092,333
9.093,335
9.094,339
9.095,338
9.096,339
9.097,332
9.098,333
9.099,327
9.1,317
9.101,323
9.102,332
9.103,331
9.104,318
9.105,312
9.106,317
9.107,306
9.108,313
9.109,322
9.11,328
9.111,328
9.112,333
9.113,338
9.114,340
9.115,334
9.116,336
9.117,329
9.118,319
9.119,311
9.12,305
9.121,303
9.122,304
9.123,304
9.124,309
9.125,324
9.126,331
9.127,332
9.128,332
9.129,335
9.13,330
9.131,324
9.132,322
9.133,321
9.134,317
9.135,317
9.136,311
9.137,303
9.138,304
9.139,310
9.14,317
9.141,325
9.142,331
9.143,328
9.144,315
9.145,305
9.146,305
9.147,303
9.148,307
9.149,312
9.15,316
9.151,325
9.152,329
9.153,333
9.154,333
9.155,325
9.156,329
9.157,334
9.158,340
9.159,345
9.16,345
9.161,343
9.162,333
9.163,329
9.164,321
9.165,322
9.166,328
9.167,332
9.168,341
9.169,337
9.17,321
9.171,315
9.172,317
9.173,314
9.174,332
9.175,335
9.176,335
9.177,334
9.178,325
9.179,326
9.18,321
9.181,317
9.182,314
9.183,309
9.184,312
9.185,321
9.186,322
9.187,322
9.188,324
9.189,329
9.19,326
9.191,324
9.192,321
9.193,318
9.194,319
9.195,320
9.196,317
9.197,311
9.198,310
9.199,309
9.2,315
9.201,319
9.202,319
9.203,321
9.204,313
9.205,308
9.206,308
9.207,305
9.208,310
9.209,321
9.21,330
9.211,336
9.212,338
9.213,338
9.214,337
9.215,335
9.216,324
9.217,321
9.218,321
9.219,321
9.22,322
9.221,328
9.222,332
9.223,324
9.224,319
9.225,316
9.226,316
9.227,321
9.228,318
9.229,329
9.23,339
9.231,351
9.232,351
9.233,338
9.234,328
9.235,322
9.236,317
9.237,320
9.238,323
9.239,329
9.24,334
9.241,343
9.242,343
9.243,331
9.244,321
9.245,320
9.246,318
9.247,315
9.248,315
9.249,319
9.25,324
9.251,337
9.252,337
9.253,334
9.254,332
9.255,323
9.256,316
9.257,303
9.258,300
9.259,302
9.26,304
9.261,309
9.262,318
9.263,318
9.264,314
9.265,309
9.266,297
9.267,302
9.268,306
9.269,308
9.27,319
9.271,324
9.272,324
9.273,329
9.274,334
9.275,334
9.276,335
9.277,327
9.278,327
9.279,331
9.28,329
9.281,336
9.282,353
9.283,357
9.284,350
9.285,344
9.286,333
9.287,320
9.288,308
9.289,305
9.29,302
9.291,301
9.292,301
9.293,305
9.294,311
9.295,323
9.296,331
9.297,334
9.298,339
9.299,341
9.3,328
9.301,321
9.302,318
9.303,320
9.304,321
9.305,323
9.306,321
9.307,321
9.308,327
9.309,332
9.31,326
9.311,321
9.312,317
9.313,319
9.314,328
9.315,330
9.316,331
9.317,326
9.318,318
9.319,318
9.32,319
9.321,329
9.322,336
9.323,340
9.324,340
9.325,333
9.326,322
9.327,306
9.328,299
9.329,292
9.33,294
9.331,309
9.332,316
9.333,323
9.334,323
9.335,328
9.336,337
9.337,340
9.338,336
9.339,331
9.34,325
9.341,324
9.342,326
9.343,326
9.344,321
9.345,319
9.346,328
9.347,325
9.348,320
9.349,315
9.35,314
9.351,320
9.352,323
9.353,327
9.354,326
9.355,323
9.356,318
9.357,321
9.358,325
9.359,333
9.36,340
9.361,346
9.362,348
9.363,341
9.364,330
9.365,325
9.366,316
9.367,312
9.368,313
9.369,311
9.37,313
9.371,313
9.372,312
9.373,316
9.374,322
9.375,337
9.376,348
9.377,342
9.378,329
9.379,317
9.38,321
9.381,324
9.382,328
9.383,328
9.384,324
9.385,315
9.386,311
9.387,309
9.388,306
9.389,300
9.39,303
9.391,307
9.392,315
9.393,329
9.394,328
9.395,322
9.396,316
9.397,314
9.398,325
9.399,335
9.4,340
9.401,342
9.402,344
9.403,342
9.404,337
9.405,326
9.406,320
9.407,316
9.408,315
9.409,313
9.41,305
9.411,301
9.412,298
9.413,307
9.414,308
9.415,315
9.416,317
9.417,326
9.418,330
9.419,338
9.42,337
9.421,336
9.422,341
9.423,342
9.424,334
9.425,329
9.426,326
9.427,323
9.428,322
9.429,326
9.43,328
9.431,327
9.432,320
9.433,316
9.434,322
9.435,330
9.436,333
9.437,331
9.438,331
9.439,330
9.44,326
9.441,324
9.442,312
9.443,311
9.444,318
9.445,319
9.446,321
9.447,323
9.448,316
9.449,310
9.45,304
9.451,304
9.452,302
9.453,314
9.454,328
9.455,337
9.456,338
9.457,332
9.458,324
9.459,323
9.46,319
9.461,324
9.462,337
9.463,344
9.464,345
9.465,344
9.466,334
9.467,325
9.468,312
9.469,306
9.47,299
9.471,298
9.472,302
9.473,302
9.474,306
9.475,317
9.476,327
9.477,325
9.478,316
9.479,314
9.48,315
9.481,324
9.482,328
9.483,329
9.484,333
9.485,330
9.486,326
9.487,331
9.488,332
9.489,333
9.49,335
9.491,332
9.492,340
9.493,341
9.494,338
9.495,336
9.496,328
9.497,328
9.498,327
9.499,325
9.5,325
9.501,327
9.502,323
9.503,318
9.504,322
9.505,327
9.506,325
9.507,314
9.508,314
9.509,309
9.51,308
9.511,315
9.512,310
9.513,308
9.514,301
9.515,299
9.516,308
9.517,320
9.518,322
9.519,329
9.52,340
9.521,340
9.522,341
9.523,342
9.524,342
9.525,339
9.526,325
9.527,314
9.528,310
9.529,313
9.53,314
9.531,321
9.532,324
9.533,328
9.534,319
9.535,318
9.536,322
9.537,323
9.538,321
9.539,327
9.54,333
9.541,324
9.542,319
9.543,320
9.544,322
9.545,325
9.546,330
9.547,331
9.548,334
9.549,332
9.55,329
9.551,329
9.552,320
9.553,309
9.554,301
9.555,307
9.556,316
9.557,325
9.558,327
9.559,332
9.56,329
9.561,320
9.562,317
9.563,321
9.564,321
9.565,325
9.566,324
9.567,322
9.568,320
9.569,314
9.57,312
9.571,318
9.572,327
9.573,333
9.574,330
9.575,331
9.576,329
9.577,328
9.578,336
9.579,337
9.58,334
9.581,332
9.582,323
9.583,316
9.584,309
9.585,302
9.586,299
9.587,297
9.588,307
9.589,321
9.59,323
9.591,322
9.592,325
9.593,330
9.594,325
9.595,326
9.596,324
9.597,322
9.598,317
9.599,320
9.6,328
9.601,337
9.602,345
9.603,344
9.604,333
9.605,322
9.606,305
9.607,295
9.608,293
9.609,296
9.61,302
9.611,310
9.612,314
9.613,324
9.614,343
9.615,362
9.616,371
9.617,360
9.618,342
9.619,330
9.62,312
9.621,303
9.622,301
9.623,303
9.624,307
9.625,318
9.626,327
9.627,325
9.628,319
9.629,316
9.63,317
9.631,322
9.632,318
9.633,316
9.634,316
9.635,316
9.636,312
9.637,315
9.638,322
9.639,324
9.64,326
9.641,334
9.642,330
9.643,330
9.644,329
9.645,321
9.646,316
9.647,311
9.648,308
9.649,312
9.65,322
9.651,327
9.652,331
9.653,336
9.654,347
9.655,348
9.656,346
9.657,335
9.658,325
9.659,316
9.66,308
9.661,301
9.662,302
9.663,308
9.664,308
9.665,308
9.666,314
9.667,317
9.668,324
9.669,327
9.67,323
9.671,321
9.672,316
9.673,321
9.674,322
9.675,325
9.676,332
9.677,342
9.678,348
9.679,342
9.68,336
9.681,324
9.682,319
9.683,322
9.684,322
9.685,325
9.686,329
9.687,322
9.688,316
9.689,312
9.69,310
9.691,308
9.692,316
9.693,325
9.694,336
9.695,342
9.696,344
9.697,335
9.698,322
9.699,315
9.7,313
9.701,305
9.702,302
9.703,310
9.704,316
9.705,317
9.706,322
9.707,328
9.708,329
9.709,327
9.71,323
9.711,319
9.712,313
9.713,309
9.714,318
9.715,337
9.716,351
9.717,353
9.718,345
9.719,335
9.72,327
9.721,320
9.722,317
9.723,315
9.724,309
9.725,312
9.726,310
9.727,305
9.728,308
9.729,314
9.73,313
9.731,317
9.732,328
9.733,335
9.734,336
9.735,336
9.736,331
9.737,330
9.738,338
9.739,339
9.74,339
9.741,330
9.742,318
9.743,318
9.744,319
9.745,313
9.746,313
9.747,315
9.748,307
9.749,311
9.75,319
9.751,318
9.752,318
9.753,325
9.754,322
9.755,332
9.756,336
9.757,342
9.758,339
9.759,335
9.76,328
9.761,316
9.762,306
9.763,302
9.764,303
9.765,314
9.766,333
9.767,344
9.768,330
9.769,323
9.77,318
9.771,314
9.772,312
9.773,308
9.774,307
9.775,314
9.776,315
9.777,321
9.778,323
9.779,315
9.78,313
9.781,316
9.782,314
9.783,321
9.784,336
9.785,336
9.786,331
9.787,324
9.788,319
9.789,316
9.79,319
9.791,330
9.792,337
9.793,333
9.794,331
9.795,332
9.796,324
9.797,318
9.798,317
9.799,314
9.8,312
9.801,316
9.802,321
9.803,328
9.804,333
9.805,343
9.806,351
9.807,346
9.808,332
9.809,320
9.81,319
9.811,316
9.812,321
9.813,326
9.814,329
9.815,319
9.816,311
9.817,309
9.818,308
9.819,309
9.82,321
9.821,324
9.822,321
9.823,318
9.824,316
9.825,328
9.826,338
9.827,343
9.828,346
9.829,342
9.83,332
9.831,331
9.832,328
9.833,317
9.834,311
9.835,305
9.836,304
9.837,309
9.838,312
9.839,317
9.84,320
9.841,322
9.842,322
9.843,322
9.844,321
9.845,320
9.846,321
9.847,324
9.848,316
9.849,317
9.85,328
9.851,326
9.852,325
9.853,318
9.854,310
9.855,306
9.856,302
9.857,306
9.858,315
9.859,322
9.86,327
9.861,327
9.862,328
9.863,320
9.864,316
9.865,324
9.866,334
9.867,336
9.868,339
9.869,340
9.87,338
9.871,334
9.872,333
9.873,329
9.874,320
9.875,310
9.876,306
9.877,305
9.878,313
9.879,320
9.88,324
9.881,324
9.882,337
9.883,346
9.884,342
9.885,336
9.886,332
9.887,331
9.888,330
9.889,330
9.89,335
9.891,333
9.892,327
9.893,321
9.894,317
9.895,322
9.896,334
9.897,341
9.898,342
9.899,332
9.9,318
9.901,314
9.902,309
9.903,298
9.904,301
9.905,303
9.906,310
9.907,314
9.908,319
9.909,315
9.91,311
9.911,309
9.912,306
9.913,310
9.914,314
9.915,318
9.916,321
9.917,328
9.918,332
9.919,330
9.92,331
9.921,330
9.922,333
9.923,341
9.924,349
9.925,346
9.926,346
9.927,341
9.928,336
9.929,328
9.93,317
9.931,307
9.932,304
9.933,297
9.934,296
9.935,299
9.936,310
9.937,315
9.938,323
9.939,329
9.94,331
9.941,333
9.942,336
9.943,347
9.944,349
9.945,346
9.946,338
9.947,322
9.948,319
9.949,317
9.95,317
9.951,320
9.952,320
9.953,315
9.954,313
9.955,312
9.956,302
9.957,301
9.958,302
9.959,314
9.96,329
9.961,343
9.962,354
9.963,351
9.964,345
9.965,338
9.966,331
9.967,322
9.968,312
9.969,303
9.97,298
9.971,300
9.972,308
9.973,313
9.974,321
9.975,319
9.976,310
9.977,311
9.978,322
9.979,329
9.98,330
9.981,326
9.982,314
9.983,316
9.984,321
9.985,322
9.986,327
9.987,331
9.988,334
9.989,334
9.99,325
9.991,318
9.992,316
9.993,313
9.994,308
9.995,309
9.996,310
9.997,316
9.998,322
9.999,330
10,335
10.001,340
10.002,338
10.003,340
10.004,338
10.005,337
10.006,331
10.007,324
10.008,323
10.009,322
10.01,317
10.011,310
10.012,301
10.013,294
10.014,299
10.015,304
10.016,310
10.017,317
10.018,325
10.019,328
10.02,343
10.021,351
10.022,351
10.023,357
10.024,352
10.025,346
10.026,334
10.027,312
10.028,301
10.029,298
10.03,295
10.031,297
10.032,300
10.033,305
10.034,310
10.035,311
10.036,308
10.037,304
10.038,299
10.039,299
10.04,300
10.041,303
10.042,308
10.043,318
10.044,323
10.045,328
10.046,333
10.047,341
10.048,340
10.049,339
10.05,332
10.051,324
10.052,332
10.053,345
10.054,357
10.055,368
10.056,373
10.057,368
10.058,349
10.059,328
10.06,312
10.061,307
10.062,306
10.063,309
10.064,310
10.065,310
10.066,306
10.067,303
10.068,305
10.069,301
10.07,294
10.071,295
10.072,295
10.073,296
10.074,302
10.075,309
10.076,316
10.077,326
10.078,332
10.079,336
10.08,340
10.081,339
10.082,338
10.083,340
10.084,336
10.085,329
10.086,329
10.087,327
10.088,317
10.089,320
10.09,319
10.091,318
10.092,319
10.093,323
10.094,329
10.095,332
10.096,333
10.097,331
10.098,329
10.099,329
10.1,327
10.101,325
10.102,321
10.103,320
10.104,317
10.105,317
10.106,316
10.107,317
10.108,318
10.109,321
10.11,323
10.111,324
10.112,326
10.113,328
10.114,330
10.115,328
10.116,328
10.117,324
10.118,323
10.119,323
10.12,320
10.121,320
10.122,318
10.123,319
10.124,320
10.125,323
10.126,322
10.127,323
10.128,322
10.129,324
10.13,325
10.131,324
10.132,325
10.133,324
10.134,325
10.135,325
10.136,323
10.137,323
10.138,320
10.139,319
10.14,320
10.141,320
10.142,319
10.143,320
10.144,320
10.145,317
10.146,320
10.147,325
10.148,326
10.149,326
10.15,327
10.151,325
10.152,325
10.153,323
10.154,322
10.155,323
10.156,322
10.157,322
10.158,323
10.159,324
10.16,324
10.161,324
10.162,324
10.163,322
10.164,323
10.165,323
10.166,323
10.167,324
10.168,324
10.169,325
10.17,321
10.171,320
10.172,318
10.173,324
10.174,324
10.175,324
10.176,323
10.177,322
10.178,321
10.179,322
10.18,325
10.181,325
10.182,326
10.183,324
10.184,324
10.185,323
10.186,323
10.187,322
10.188,320
10.189,320
10.19,321
10.191,324
10.192,322
10.193,323
10.194,322
10.195,324
10.196,326
10.197,324
10.198,322
10.199,319
10.2,319
10.201,322
10.202,322
10.203,324
10.204,323
10.205,324
10.206,323
10.207,323
10.208,324
10.209,322
10.21,323
10.211,322
10.212,322
10.213,321
10.214,323
10.215,324
10.216,320
10.217,321
10.218,322
10.219,321
10.22,322
10.221,320
10.222,322
10.223,322
10.224,322
10.225,322
10.226,321
10.227,320
10.228,322
10.229,321
10.23,320
10.231,321
10.232,320
10.233,322
10.234,323
10.235,322
10.236,321
10.237,321
10.238,320
10.239,323
10.24,323
10.241,321
10.242,321
10.243,320
10.244,322
10.245,323
10.246,323
10.247,322
10.248,322
10.249,322
10.25,320
10.251,322
10.252,323
10.253,323
10.254,321
10.255,321
10.256,321
10.257,321
10.258,324
10.259,329
10.26,325
10.261,324
10.262,324
10.263,320
10.264,321
10.265,323
10.266,325
10.267,323
10.268,325
10.269,324
10.27,324
10.271,321
10.272,323
10.273,324
10.274,320
10.275,322
10.276,322
10.277,323
10.278,322
10.279,321
10.28,322
10.281,323
10.282,322
10.283,321
10.284,322
10.285,320
10.286,324
10.287,327
10.288,322
10.289,323
10.29,325
10.291,324
10.292,325
10.293,325
10.294,322
10.295,324
10.296,325
10.297,324
10.298,321
10.299,322
10.3,321
10.301,321
10.302,323
10.303,323
10.304,320
10.305,320
10.306,321
10.307,320
10.308,319
10.309,318
10.31,320
10.311,321
10.312,319
10.313,316
10.314,320
10.315,323
10.316,320
10.317,320
10.318,318
10.319,323
10.32,324
10.321,324
10.322,323
10.323,325
10.324,323
10.325,322
10.326,324
10.327,326
10.328,327
10.329,326
10.33,329
10.331,332
10.332,332
10.333,328
10.334,325
10.335,326
10.336,324
10.337,326
10.338,326
10.339,327
10.34,327
10.341,324
10.342,322
10.343,324
10.344,322
10.345,323
10.346,325
10.347,320
10.348,319
10.349,319
10.35,320
10.351,322
10.352,320
10.353,318
10.354,319
10.355,319
10.356,320
10.357,318
10.358,318
10.359,321
10.36,319
10.361,321
10.362,322
10.363,322
10.364,322
10.365,320
10.366,320
10.367,322
10.368,321
10.369,323
10.37,322
10.371,322
10.372,322
10.373,322
10.374,323
10.375,320
10.376,318
10.377,319
10.378,319
10.379,320
10.38,322
10.381,323
10.382,321
10.383,321
10.384,321
10.385,321
10.386,322
10.387,322
10.388,320
10.389,322
10.39,321
10.391,320
10.392,321
10.393,320
10.394,324
10.395,327
10.396,329
10.397,323
10.398,319
10.399,320
10.4,323
10.401,323
10.402,324
10.403,324
10.404,324
10.405,324
10.406,324
10.407,321
10.408,321
10.409,320
10.41,318
10.411,321
10.412,324
10.413,322
10.414,321
10.415,320
10.416,322
10.417,323
10.418,321
10.419,321
10.42,322
10.421,324
10.422,325
10.423,324
10.424,321
10.425,321
10.426,321
10.427,324
10.428,323
10.429,323
10.43,323
10.431,320
10.432,322
10.433,322
10.434,322
10.435,324
10.436,325
10.437,324
10.438,323
10.439,322
10.44,325
10.441,328
10.442,326
10.443,324
10.444,322
10.445,322
10.446,324
10.447,323
10.448,320
10.449,319
10.45,319
10.451,320
10.452,320
10.453,318
10.454,320
10.455,322
10.456,321
10.457,320
10.458,317
10.459,316
10.46,320
10.461,320
10.462,319
10.463,321
10.464,322
10.465,325
10.466,322
10.467,322
10.468,323
10.469,321
10.47,323
10.471,322
10.472,323
10.473,324
10.474,325
10.475,323
10.476,323
10.477,321
10.478,321
10.479,322
10.48,322
10.481,321
10.482,324
10.483,323
10.484,323
10.485,322
10.486,324
10.487,323
10.488,321
10.489,322
10.49,323
10.491,325
10.492,323
10.493,323
10.494,323
10.495,323
10.496,323
10.497,324
10.498,323
10.499,321
10.5,322
10.501,322
10.502,320
10.503,321
10.504,320
10.505,320
10.506,317
10.507,319
10.508,321
10.509,320
10.51,321
10.511,323
10.512,323
10.513,324
10.514,325
10.515,325
10.516,322
10.517,322
10.518,323
10.519,328
10.52,328
10.521,328
10.522,329
10.523,326
10.524,327
10.525,326
10.526,321
10.527,322
10.528,322
10.529,325
10.53,328
10.531,327
10.532,326
10.533,324
10.534,321
10.535,324
10.536,323
10.537,322
10.538,323
10.539,324
10.54,327
10.541,324
10.542,322
10.543,324
10.544,325
10.545,324
10.546,322
10.547,324
10.548,323
10.549,321
10.55,322
10.551,322
10.552,322
10.553,322
10.554,320
10.555,320
10.556,323
10.557,323
10.558,322
10.559,320
10.56,323
10.561,323
10.562,320
10.563,323
10.564,323
10.565,323
10.566,324
10.567,322
10.568,322
10.569,323
10.57,322
10.571,321
10.572,322
10.573,323
10.574,323
10.575,325
10.576,323
10.577,323
10.578,323
10.579,322
10.58,321
10.581,318
10.582,319
10.583,319
10.584,321
10.585,325
10.586,325
10.587,326
10.588,326
10.589,326
10.59,325
10.591,325
10.592,321
10.593,321
10.594,320
10.595,323
10.596,323
10.597,320
10.598,317
10.599,318
10.6,320
10.601,325
10.602,325
10.603,321
10.604,318
10.605,319
10.606,319
10.607,318
10.608,317
10.609,317
10.61,319
10.611,318
10.612,320
10.613,320
10.614,322
10.615,321
10.616,322
10.617,321
10.618,321
10.619,320
10.62,319
10.621,323
10.622,331
10.623,330
10.624,330
10.625,328
10.626,324
10.627,325
10.628,324
10.629,322
10.63,318
10.631,319
10.632,321
10.633,323
10.634,320
10.635,316
10.636,317
10.637,317
10.638,317
10.639,316
10.64,316
10.641,318
10.642,318
10.643,321
10.644,321
10.645,322
10.646,323
10.647,324
10.648,326
10.649,327
10.65,327
10.651,326
10.652,325
10.653,328
10.654,328
10.655,326
10.656,323
10.657,321
10.658,319
10.659,322
10.66,322
10.661,321
10.662,320
10.663,318
10.664,317
10.665,319
10.666,323
10.667,326
10.668,328
10.669,328
10.67,327
10.671,324
10.672,324
10.673,325
10.674,326
10.675,328
10.676,330
10.677,327
10.678,322
10.679,318
10.68,315
10.681,314
10.682,312
10.683,312
10.684,311
10.685,311
10.686,314
10.687,316
10.688,317
10.689,317
10.69,320
10.691,321
10.692,321
10.693,321
10.694,322
10.695,326
10.696,328
10.697,330
10.698,327
10.699,326
10.7,326
10.701,328
10.702,328
10.703,330
10.704,332
10.705,326
10.706,321
10.707,320
10.708,320
10.709,319
10.71,316
10.711,319
10.712,319
10.713,321
10.714,322
10.715,318
10.716,316
10.717,316
10.718,320
10.719,321
10.72,319
10.721,318
10.722,317
10.723,322
10.724,319
10.725,323
10.726,323
10.727,320
10.728,323
10.729,329
10.73,329
10.731,331
10.732,334
10.733,331
10.734,334
10.735,336
10.736,339
10.737,335
10.738,328
10.739,326
10.74,324
10.741,328
10.742,330
10.743,329
10.744,327
10.745,322
10.746,315
10.747,312
10.748,311
10.749,306
10.75,306
10.751,304
10.752,309
10.753,314
10.754,318
10.755,323
10.756,320
10.757,321
10.758,320
10.759,320
10.76,319
10.761,319
10.762,320
10.763,324
10.764,325
10.765,325
10.766,324
10.767,323
10.768,324
10.769,323
10.77,321
10.771,318
10.772,317
10.773,316
10.774,318
10.775,319
10.776,320
10.777,323
10.778,325
10.779,325
10.78,327
10.781,326
10.782,324
10.783,321
10.784,320
10.785,322
10.786,325
10.787,324
10.788,320
10.789,321
10.79,322
10.791,324
10.792,323
10.793,324
10.794,328
10.795,331
10.796,333
10.797,333
10.798,330
10.799,327
10.8,323
10.801,322
10.802,322
10.803,324
10.804,328
10.805,331
10.806,328
10.807,332
10.808,332
10.809,332
10.81,329
10.811,328
10.812,325
10.813,320
10.814,315
10.815,314
10.816,314
10.817,314
10.818,316
10.819,319
10.82,320
10.821,322
10.822,323
10.823,323
10.824,326
10.825,324
10.826,321
10.827,322
10.828,325
10.829,325
10.83,328
10.831,329
10.832,330
10.833,331
10.834,331
10.835,335
10.836,330
10.837,327
10.838,322
10.839,323
10.84,325
10.841,325
10.842,323
10.843,320
10.844,319
10.845,315
10.846,315
10.847,318
10.848,321
10.849,323
10.85,322
10.851,321
10.852,321
10.853,321
10.854,324
10.855,322
10.856,321
10.857,320
10.858,320
10.859,320
10.86,319
10.861,319
10.862,320
10.863,321
10.864,322
10.865,322
10.866,321
10.867,321
10.868,321
10.869,321
10.87,320
10.871,321
10.872,320
10.873,323
10.874,322
10.875,323
10.876,325
10.877,327
10.878,326
10.879,327
10.88,326
10.881,326
10.882,324
10.883,324
10.884,322
10.885,324
10.886,326
10.887,322
10.888,323
10.889,323
10.89,323
10.891,324
10.892,323
10.893,323
10.894,323
10.895,324
10.896,326
10.897,325
10.898,324
10.899,327
10.9,326
10.901,326
10.902,325
10.903,326
10.904,327
10.905,323
10.906,321
10.907,323
10.908,323
10.909,322
10.91,320
10.911,320
10.912,322
10.913,325
10.914,325
10.915,324
10.916,324
10.917,322
10.918,322
10.919,323
10.92,324
10.921,319
10.922,320
10.923,322
10.924,321
10.925,322
10.926,322
10.927,322
10.928,325
10.929,325
10.93,323
10.931,322
10.932,321
10.933,320
