time,LT
0,320
0.001,323
0.002,323
0.003,322
0.004,324
0.005,324
0.006,323
0.007,324
0.008,323
0.009,321
0.01,321
0.011,322
0.012,322
0.013,322
0.014,323
0.015,322
0.016,320
0.017,321
0.018,319
0.019,318
0.02,318
0.021,320
0.022,321
0.023,321
0.024,319
0.025,320
0.026,320
0.027,321
0.028,320
0.029,322
0.03,323
0.031,321
0.032,322
0.033,322
0.034,322
0.035,321
0.036,322
0.037,322
0.038,322
0.039,322
0.04,322
0.041,322
0.042,323
0.043,322
0.044,323
0.045,324
0.046,323
0.047,325
0.048,328
0.049,327
0.05,328
0.051,327
0.052,325
0.053,323
0.054,321
0.055,317
0.056,319
0.057,320
0.058,320
0.059,320
0.06,321
0.061,320
0.062,320
0.063,321
0.064,320
0.065,321
0.066,322
0.067,322
0.068,323
0.069,323
0.07,323
0.071,322
0.072,322
0.073,321
0.074,320
0.075,321
0.076,322
0.077,323
0.078,322
0.079,323
0.08,322
0.081,321
0.082,321
0.083,321
0.084,321
0.085,322
0.086,322
0.087,321
0.088,323
0.089,325
0.09,323
0.091,324
0.092,323
0.093,323
0.094,322
0.095,321
0.096,323
0.097,324
0.098,325
0.099,323
0.1,323
0.101,323
0.102,323
0.103,323
0.104,322
0.105,322
0.106,323
0.107,324
0.108,324
0.109,322
0.11,320
0.111,321
0.112,320
0.113,318
0.114,317
0.115,317
0.116,319
0.117,319
0.118,319
0.119,321
0.12,322
0.121,322
0.122,322
0.123,324
0.124,324
0.125,323
0.126,325
0.127,324
0.128,323
0.129,324
0.13,323
0.131,323
0.132,323
0.133,321
0.134,321
0.135,320
0.136,320
0.137,319
0.138,320
0.139,320
0.14,321
0.141,320
0.142,319
0.143,320
0.144,322
0.145,322
0.146,324
0.147,324
0.148,324
0.149,323
0.15,322
0.151,322
0.152,322
0.153,320
0.154,320
0.155,321
0.156,320
0.157,322
0.158,324
0.159,323
0.16,324
0.161,324
0.162,324
0.163,322
0.164,323
0.165,323
0.166,322
0.167,323
0.168,324
0.169,323
0.17,324
0.171,324
0.172,322
0.173,322
0.174,322
0.175,325
0.176,324
0.177,325
0.178,324
0.179,324
0.18,323
0.181,321
0.182,321
0.183,320
0.184,318
0.185,318
0.186,320
0.187,324
0.188,325
0.189,324
0.19,324
0.191,321
0.192,318
0.193,317
0.194,318
0.195,322
0.196,322
0.197,323
0.198,323
0.199,325
0.2,324
0.201,321
0.202,319
0.203,320
0.204,320
0.205,322
0.206,323
0.207,324
0.208,323
0.209,321
0.21,320
0.211,317
0.212,317
0.213,316
0.214,320
0.215,320
0.216,322
0.217,322
0.218,324
0.219,324
0.22,323
0.221,322
0.222,324
0.223,323
0.224,320
0.225,320
0.226,320
0.227,319
0.228,321
0.229,320
0.23,320
0.231,320
0.232,321
0.233,320
0.234,319
0.235,320
0.236,321
0.237,321
0.238,322
0.239,324
0.24,324
0.241,325
0.242,326
0.243,326
0.244,327
0.245,326
0.246,325
0.247,324
0.248,322
0.249,324
0.25,325
0.251,324
0.252,323
0.253,322
0.254,323
0.255,321
0.256,320
0.257,317
0.258,316
0.259,317
0.26,320
0.261,321
0.262,324
0.263,326
0.264,326
0.265,326
0.266,326
0.267,326
0.268,327
0.269,330
0.27,326
0.271,325
0.272,325
0.273,324
0.274,322
0.275,320
0.276,320
0.277,321
0.278,319
0.279,321
0.28,322
0.281,322
0.282,321
0.283,319
0.284,314
0.285,312
0.286,312
0.287,316
0.288,319
0.289,321
0.29,323
0.291,323
0.292,323
0.293,324
0.294,323
0.295,323
0.296,322
0.297,324
0.298,323
0.299,323
0.3,320
0.301,319
0.302,320
0.303,321
0.304,323
0.305,322
0.306,323
0.307,323
0.308,324
0.309,322
0.31,320
0.311,318
0.312,317
0.313,317
0.314,318
0.315,320
0.316,320
0.317,321
0.318,322
0.319,321
0.32,321
0.321,322
0.322,322
0.323,322
0.324,323
0.325,322
0.326,324
0.327,326
0.328,326
0.329,326
0.33,325
0.331,323
0.332,322
0.333,322
0.334,321
0.335,320
0.336,322
0.337,322
0.338,322
0.339,323
0.34,324
0.341,323
0.342,323
0.343,323
0.344,322
0.345,323
0.346,323
0.347,325
0.348,325
0.349,324
0.35,327
0.351,327
0.352,324
0.353,324
0.354,320
0.355,317
0.356,315
0.357,312
0.358,313
0.359,315
0.36,317
0.361,318
0.362,319
0.363,320
0.364,321
0.365,322
0.366,321
0.367,321
0.368,321
0.369,321
0.37,322
0.371,325
0.372,327
0.373,328
0.374,327
0.375,325
0.376,322
0.377,321
0.378,318
0.379,319
0.38,318
0.381,319
0.382,320
0.383,319
0.384,320
0.385,321
0.386,321
0.387,322
0.388,323
0.389,322
0.39,323
0.391,322
0.392,323
0.393,324
0.394,324
0.395,323
0.396,322
0.397,321
0.398,322
0.399,323
0.4,324
0.401,325
0.402,325
0.403,324
0.404,322
0.405,322
0.406,323
0.407,323
0.408,325
0.409,324
0.41,323
0.411,325
0.412,324
0.413,324
0.414,322
0.415,321
0.416,321
0.417,321
0.418,320
0.419,318
0.42,318
0.421,315
0.422,317
0.423,318
0.424,319
0.425,320
0.426,321
0.427,322
0.428,321
0.429,321
0.43,323
0.431,323
0.432,322
0.433,323
0.434,324
0.435,325
0.436,324
0.437,325
0.438,325
0.439,323
0.44,321
0.441,321
0.442,322
0.443,321
0.444,319
0.445,320
0.446,318
0.447,320
0.448,320
0.449,321
0.45,322
0.451,323
0.452,322
0.453,323
0.454,322
0.455,320
0.456,320
0.457,321
0.458,321
0.459,323
0.46,324
0.461,324
0.462,324
0.463,322
0.464,323
0.465,323
0.466,321
0.467,323
0.468,322
0.469,321
0.47,322
0.471,322
0.472,322
0.473,321
0.474,321
0.475,322
0.476,322
0.477,323
0.478,324
0.479,324
0.48,322
0.481,324
0.482,323
0.483,323
0.484,322
0.485,323
0.486,322
0.487,323
0.488,324
0.489,325
0.49,326
0.491,326
0.492,324
0.493,323
0.494,324
0.495,321
0.496,320
0.497,320
0.498,320
0.499,321
0.5,320
0.501,320
0.502,319
0.503,317
0.504,318
0.505,322
0.506,323
0.507,323
0.508,324
0.509,323
0.51,323
0.511,321
0.512,320
0.513,321
0.514,320
0.515,318
0.516,321
0.517,320
0.518,322
0.519,323
0.52,323
0.521,324
0.522,324
0.523,323
0.524,325
0.525,324
0.526,324
0.527,324
0.528,324
0.529,326
0.53,324
0.531,323
0.532,322
0.533,320
0.534,318
0.535,318
0.536,319
0.537,324
0.538,326
0.539,327
0.54,325
0.541,324
0.542,321
0.543,320
0.544,317
0.545,316
0.546,314
0.547,315
0.548,318
0.549,321
0.55,321
0.551,321
0.552,320
0.553,319
0.554,317
0.555,317
0.556,317
0.557,318
0.558,318
0.559,320
0.56,321
0.561,322
0.562,323
0.563,325
0.564,325
0.565,326
0.566,325
0.567,326
0.568,325
0.569,325
0.57,324
0.571,324
0.572,324
0.573,323
0.574,322
0.575,320
0.576,322
0.577,322
0.578,325
0.579,326
0.58,328
0.581,328
0.582,328
0.583,326
0.584,324
0.585,323
0.586,320
0.587,318
0.588,316
0.589,315
0.59,318
0.591,319
0.592,321
0.593,320
0.594,320
0.595,320
0.596,319
0.597,319
0.598,319
0.599,320
0.6,320
0.601,321
0.602,321
0.603,322
0.604,323
0.605,324
0.606,324
0.607,326
0.608,326
0.609,324
0.61,324
0.611,323
0.612,322
0.613,320
0.614,321
0.615,321
0.616,322
0.617,322
0.618,322
0.619,324
0.62,323
0.621,322
0.622,322
0.623,322
0.624,322
0.625,322
0.626,321
0.627,321
0.628,321
0.629,322
0.63,322
0.631,321
0.632,320
0.633,322
0.634,321
0.635,321
0.636,321
0.637,320
0.638,321
0.639,322
0.64,321
0.641,323
0.642,323
0.643,324
0.644,324
0.645,326
0.646,326
0.647,326
0.648,326
0.649,324
0.65,323
0.651,322
0.652,323
0.653,323
0.654,322
0.655,322
0.656,321
0.657,319
0.658,319
0.659,319
0.66,319
0.661,322
0.662,320
0.663,319
0.664,320
0.665,320
0.666,318
0.667,320
0.668,321
0.669,320
0.67,321
0.671,322
0.672,322
0.673,322
0.674,323
0.675,322
0.676,322
0.677,322
0.678,322
0.679,322
0.68,322
0.681,322
0.682,322
0.683,323
0.684,324
0.685,324
0.686,324
0.687,325
0.688,326
0.689,325
0.69,325
0.691,325
0.692,324
0.693,322
0.694,322
0.695,320
0.696,319
0.697,317
0.698,318
0.699,321
0.7,321
0.701,320
0.702,320
0.703,320
0.704,320
0.705,320
0.706,320
0.707,321
0.708,320
0.709,321
0.71,322
0.711,324
0.712,325
0.713,326
0.714,325
0.715,326
0.716,324
0.717,324
0.718,321
0.719,320
0.72,321
0.721,321
0.722,322
0.723,322
0.724,322
0.725,322
0.726,321
0.727,321
0.728,320
0.729,320
0.73,321
0.731,320
0.732,321
0.733,321
0.734,322
0.735,322
0.736,321
0.737,321
0.738,321
0.739,322
0.74,321
0.741,322
0.742,321
0.743,321
0.744,322
0.745,322
0.746,322
0.747,323
0.748,323
0.749,322
0.75,321
0.751,322
0.752,322
0.753,321
0.754,321
0.755,321
0.756,323
0.757,322
0.758,322
0.759,322
0.76,322
0.761,323
0.762,322
0.763,322
0.764,323
0.765,323
0.766,323
0.767,323
0.768,323
0.769,322
0.77,324
0.771,323
0.772,324
0.773,322
0.774,323
0.775,322
0.776,322
0.777,323
0.778,323
0.779,324
0.78,323
0.781,325
0.782,325
0.783,325
0.784,322
0.785,322
0.786,320
0.787,319
0.788,320
0.789,319
0.79,320
0.791,320
0.792,321
0.793,320
0.794,321
0.795,320
0.796,321
0.797,320
0.798,321
0.799,321
0.8,321
0.801,322
0.802,323
0.803,323
0.804,323
0.805,325
0.806,323
0.807,323
0.808,323
0.809,324
0.81,322
0.811,321
0.812,321
0.813,322
0.814,322
0.815,322
0.816,322
0.817,322
0.818,322
0.819,322
0.82,323
0.821,322
0.822,322
0.823,322
0.824,322
0.825,321
0.826,322
0.827,321
0.828,321
0.829,322
0.83,322
0.831,321
0.832,322
0.833,322
0.834,322
0.835,322
0.836,323
0.837,322
0.838,322
0.839,322
0.84,322
0.841,322
0.842,322
0.843,322
0.844,322
0.845,322
0.846,322
0.847,322
0.848,322
0.849,321
0.85,321
0.851,322
0.852,322
0.853,321
0.854,321
0.855,321
0.856,321
0.857,321
0.858,320
0.859,321
0.86,321
0.861,322
0.862,321
0.863,322
0.864,322
0.865,321
0.866,322
0.867,321
0.868,322
0.869,322
0.87,323
0.871,323
0.872,322
0.873,324
0.874,324
0.875,325
0.876,325
0.877,324
0.878,325
0.879,323
0.88,324
0.881,325
0.882,324
0.883,323
0.884,323
0.885,322
0.886,323
0.887,323
0.888,323
0.889,323
0.89,323
0.891,322
0.892,323
0.893,322
0.894,322
0.895,322
0.896,321
0.897,321
0.898,322
0.899,322
0.9,320
0.901,322
0.902,321
0.903,321
0.904,321
0.905,321
0.906,320
0.907,322
0.908,320
0.909,320
0.91,320
0.911,321
0.912,321
0.913,321
0.914,321
0.915,322
0.916,321
0.917,321
0.918,322
0.919,322
0.92,321
0.921,322
0.922,322
0.923,323
0.924,321
0.925,321
0.926,321
0.927,321
0.928,321
0.929,322
0.93,322
0.931,323
0.932,322
0.933,322
0.934,322
0.935,322
0.936,323
0.937,322
0.938,322
0.939,321
0.94,322
0.941,322
0.942,322
0.943,322
0.944,322
0.945,322
0.946,322
0.947,322
0.948,322
0.949,322
0.95,322
0.951,322
0.952,322
0.953,322
0.954,322
0.955,322
0.956,322
0.957,322
0.958,321
0.959,322
0.96,322
0.961,321
0.962,322
0.963,322
0.964,323
0.965,322
0.966,322
0.967,322
0.968,323
0.969,323
0.97,323
0.971,323
0.972,322
0.973,321
0.974,322
0.975,322
0.976,322
0.977,322
0.978,323
0.979,322
0.98,322
0.981,322
0.982,322
0.983,322
0.984,321
0.985,323
0.986,322
0.987,321
0.988,322
0.989,322
0.99,321
0.991,322
0.992,322
0.993,322
0.994,322
0.995,322
0.996,322
0.997,323
0.998,321
0.999,321
1,321
1.001,322
1.002,321
1.003,322
1.004,322
1.005,322
1.006,322
1.007,322
1.008,322
1.009,322
1.01,321
1.011,321
1.012,322
1.013,323
1.014,321
1.015,322
1.016,322
1.017,321
1.018,321
1.019,322
1.02,322
1.021,323
1.022,322
1.023,322
1.024,322
1.025,323
1.026,321
1.027,322
1.028,322
1.029,323
1.03,323
1.031,322
1.032,322
1.033,322
1.034,322
1.035,322
1.036,321
1.037,322
1.038,321
1.039,322
1.04,321
1.041,322
1.042,322
1.043,322
1.044,321
1.045,322
1.046,322
1.047,322
1.048,322
1.049,322
1.05,321
1.051,322
1.052,322
1.053,322
1.054,322
1.055,323
1.056,322
1.057,322
1.058,322
1.059,322
1.06,322
1.061,322
1.062,322
1.063,322
1.064,322
1.065,322
1.066,322
1.067,322
1.068,323
1.069,322
1.07,322
1.071,322
1.072,323
1.073,322
1.074,322
1.075,322
1.076,322
1.077,322
1.078,322
1.079,322
1.08,322
1.081,322
1.082,322
1.083,322
1.084,322
1.085,322
1.086,320
1.087,322
1.088,321
1.089,322
1.09,322
1.091,322
1.092,322
1.093,322
1.094,321
1.095,322
1.096,322
1.097,322
1.098,322
1.099,322
1.1,322
1.101,322
1.102,322
1.103,322
1.104,321
1.105,322
1.106,322
1.107,322
1.108,322
1.109,322
1.11,322
1.111,322
1.112,322
1.113,322
1.114,322
1.115,322
1.116,323
1.117,322
1.118,322
1.119,321
1.12,323
1.121,321
1.122,322
1.123,321
1.124,322
1.125,321
1.126,322
1.127,322
1.128,322
1.129,322
1.13,321
1.131,322
1.132,322
1.133,322
1.134,322
1.135,321
1.136,322
1.137,322
1.138,321
1.139,322
1.14,322
1.141,321
1.142,321
1.143,322
1.144,322
1.145,322
1.146,321
1.147,321
1.148,321
1.149,321
1.15,322
1.151,322
1.152,321
1.153,321
1.154,322
1.155,321
1.156,321
1.157,321
1.158,321
1.159,321
1.16,322
1.161,321
1.162,321
1.163,320
1.164,321
1.165,322
1.166,321
1.167,322
1.168,321
1.169,322
1.17,321
1.171,321
1.172,322
1.173,321
1.174,322
1.175,321
1.176,321
1.177,322
1.178,322
1.179,321
1.18,322
1.181,323
1.182,322
1.183,322
1.184,322
1.185,323
1.186,321
1.187,322
1.188,322
1.189,321
1.19,321
1.191,322
1.192,322
1.193,323
1.194,322
1.195,322
1.196,322
1.197,323
1.198,322
1.199,323
1.2,322
1.201,323
1.202,322
1.203,322
1.204,321
1.205,323
1.206,322
1.207,322
1.208,322
1.209,321
1.21,322
1.211,322
1.212,322
1.213,321
1.214,322
1.215,322
1.216,322
1.217,321
1.218,321
1.219,321
1.22,321
1.221,321
1.222,322
1.223,322
1.224,322
1.225,323
1.226,321
1.227,321
1.228,322
1.229,322
1.23,322
1.231,321
1.232,322
1.233,322
1.234,322
1.235,322
1.236,323
1.237,322
1.238,322
1.239,323
1.24,323
1.241,322
1.242,322
1.243,322
1.244,322
1.245,321
1.246,321
1.247,322
1.248,322
1.249,322
1.25,323
1.251,322
1.252,323
1.253,322
1.254,322
1.255,322
1.256,321
1.257,321
1.258,322
1.259,321
1.26,322
1.261,321
1.262,321
1.263,321
1.264,321
1.265,322
1.266,322
1.267,322
1.268,321
1.269,322
1.27,321
1.271,322
1.272,321
1.273,321
1.274,321
1.275,322
1.276,322
1.277,322
1.278,322
1.279,322
1.28,322
1.281,322
1.282,323
1.283,322
1.284,322
1.285,322
1.286,322
1.287,323
1.288,321
1.289,321
1.29,321
1.291,321
1.292,320
1.293,322
1.294,322
1.295,322
1.296,321
1.297,321
1.298,322
1.299,322
1.3,322
1.301,321
1.302,322
1.303,321
1.304,322
1.305,321
1.306,322
1.307,322
1.308,322
1.309,322
1.31,322
1.311,321
1.312,321
1.313,322
1.314,322
1.315,322
1.316,322
1.317,322
1.318,322
1.319,322
1.32,322
1.321,323
1.322,322
1.323,322
1.324,322
1.325,322
1.326,322
1.327,322
1.328,322
1.329,321
1.33,321
1.331,321
1.332,321
1.333,321
1.334,322
1.335,322
1.336,322
1.337,322
1.338,322
1.339,322
1.34,322
1.341,322
1.342,322
1.343,322
1.344,322
1.345,322
1.346,322
1.347,322
1.348,322
1.349,322
1.35,321
1.351,322
1.352,320
1.353,322
1.354,322
1.355,321
1.356,322
1.357,322
1.358,322
1.359,322
1.36,322
1.361,322
1.362,321
1.363,322
1.364,323
1.365,323
1.366,322
1.367,322
1.368,322
1.369,322
1.37,322
1.371,322
1.372,322
1.373,322
1.374,322
1.375,322
1.376,321
1.377,322
1.378,322
1.379,322
1.38,322
1.381,323
1.382,321
1.383,321
1.384,321
1.385,322
1.386,321
1.387,322
1.388,322
1.389,321
1.39,322
1.391,322
1.392,321
1.393,322
1.394,322
1.395,322
1.396,322
1.397,321
1.398,321
1.399,321
1.4,321
1.401,321
1.402,320
1.403,320
1.404,322
1.405,322
1.406,321
1.407,321
1.408,322
1.409,322
1.41,322
1.411,323
1.412,322
1.413,323
1.414,323
1.415,323
1.416,322
1.417,322
1.418,323
1.419,322
1.42,323
1.421,322
1.422,323
1.423,322
1.424,322
1.425,322
1.426,321
1.427,321
1.428,321
1.429,321
1.43,322
1.431,322
1.432,322
1.433,322
1.434,323
1.435,322
1.436,323
1.437,323
1.438,322
1.439,322
1.44,323
1.441,322
1.442,322
1.443,322
1.444,322
1.445,323
1.446,323
1.447,322
1.448,322
1.449,323
1.45,322
1.451,322
1.452,322
1.453,322
1.454,321
1.455,323
1.456,322
1.457,322
1.458,322
1.459,321
1.46,322
1.461,322
1.462,322
1.463,322
1.464,321
1.465,322
1.466,322
1.467,322
1.468,321
1.469,321
1.47,321
1.471,322
1.472,322
1.473,322
1.474,322
1.475,321
1.476,322
1.477,322
1.478,322
1.479,323
1.48,321
1.481,321
1.482,321
1.483,321
1.484,321
1.485,322
1.486,321
1.487,321
1.488,322
1.489,321
1.49,322
1.491,322
1.492,322
1.493,322
1.494,322
1.495,322
1.496,320
1.497,320
1.498,321
1.499,321
1.5,321
1.501,320
1.502,321
1.503,321
1.504,321
1.505,322
1.506,320
1.507,322
1.508,322
1.509,321
1.51,322
1.511,321
1.512,322
1.513,321
1.514,322
1.515,322
1.516,322
1.517,322
1.518,323
1.519,322
1.52,324
1.521,324
1.522,324
1.523,325
1.524,325
1.525,324
1.526,324
1.527,324
1.528,324
1.529,325
1.53,325
1.531,325
1.532,325
1.533,326
1.534,323
1.535,323
1.536,323
1.537,324
1.538,322
1.539,322
1.54,322
1.541,322
1.542,321
1.543,321
1.544,322
1.545,321
1.546,321
1.547,321
1.548,322
1.549,322
1.55,321
1.551,321
1.552,320
1.553,322
1.554,322
1.555,321
1.556,322
1.557,322
1.558,320
1.559,321
1.56,321
1.561,322
1.562,320
1.563,321
1.564,322
1.565,322
1.566,321
1.567,321
1.568,321
1.569,322
1.57,321
1.571,322
1.572,322
1.573,322
1.574,322
1.575,322
1.576,321
1.577,322
1.578,322
1.579,321
1.58,321
1.581,322
1.582,321
1.583,321
1.584,321
1.585,320
1.586,321
1.587,321
1.588,321
1.589,321
1.59,321
1.591,321
1.592,322
1.593,322
1.594,322
1.595,322
1.596,323
1.597,323
1.598,323
1.599,322
1.6,322
1.601,323
1.602,322
1.603,322
1.604,322
1.605,323
1.606,322
1.607,323
1.608,323
1.609,322
1.61,322
1.611,323
1.612,323
1.613,321
1.614,321
1.615,321
1.616,321
1.617,321
1.618,323
1.619,322
1.62,323
1.621,323
1.622,322
1.623,322
1.624,322
1.625,323
1.626,321
1.627,321
1.628,321
1.629,322
1.63,322
1.631,322
1.632,322
1.633,322
1.634,322
1.635,322
1.636,322
1.637,323
1.638,322
1.639,323
1.64,322
1.641,322
1.642,322
1.643,322
1.644,321
1.645,321
1.646,322
1.647,321
1.648,323
1.649,322
1.65,321
1.651,322
1.652,321
1.653,322
1.654,322
1.655,322
1.656,321
1.657,321
1.658,322
1.659,322
1.66,322
1.661,322
1.662,322
1.663,321
1.664,321
1.665,321
1.666,321
1.667,321
1.668,322
1.669,321
1.67,320
1.671,320
1.672,322
1.673,321
1.674,322
1.675,322
1.676,322
1.677,324
1.678,324
1.679,323
1.68,322
1.681,323
1.682,323
1.683,323
1.684,322
1.685,324
1.686,324
1.687,323
1.688,323
1.689,322
1.69,321
1.691,321
1.692,322
1.693,322
1.694,322
1.695,322
1.696,322
1.697,322
1.698,323
1.699,322
1.7,322
1.701,322
1.702,322
1.703,322
1.704,322
1.705,323
1.706,323
1.707,322
1.708,323
1.709,322
1.71,321
1.711,321
1.712,322
1.713,322
1.714,321
1.715,322
1.716,322
1.717,322
1.718,323
1.719,323
1.72,322
1.721,323
1.722,321
1.723,322
1.724,321
1.725,321
1.726,322
1.727,322
1.728,322
1.729,322
1.73,322
1.731,322
1.732,323
1.733,323
1.734,322
1.735,321
1.736,323
1.737,323
1.738,320
1.739,321
1.74,323
1.741,322
1.742,323
1.743,322
1.744,322
1.745,322
1.746,320
1.747,321
1.748,322
1.749,323
1.75,322
1.751,322
1.752,322
1.753,322
1.754,322
1.755,322
1.756,321
1.757,320
1.758,321
1.759,321
1.76,321
1.761,321
1.762,322
1.763,323
1.764,321
1.765,322
1.766,322
1.767,322
1.768,322
1.769,322
1.77,323
1.771,322
1.772,323
1.773,322
1.774,322
1.775,322
1.776,322
1.777,322
1.778,321
1.779,322
1.78,322
1.781,321
1.782,322
1.783,322
1.784,322
1.785,322
1.786,322
1.787,322
1.788,322
1.789,323
1.79,322
1.791,321
1.792,321
1.793,321
1.794,321
1.795,321
1.796,321
1.797,321
1.798,321
1.799,321
1.8,321
1.801,321
1.802,321
1.803,321
1.804,322
1.805,321
1.806,321
1.807,322
1.808,321
1.809,321
1.81,321
1.811,322
1.812,321
1.813,321
1.814,322
1.815,322
1.816,322
1.817,322
1.818,321
1.819,322
1.82,321
1.821,322
1.822,322
1.823,323
1.824,322
1.825,320
1.826,321
1.827,321
1.828,320
1.829,321
1.83,320
1.831,320
1.832,321
1.833,322
1.834,321
1.835,322
1.836,321
1.837,322
1.838,322
1.839,321
1.84,322
1.841,323
1.842,323
1.843,323
1.844,322
1.845,323
1.846,323
1.847,323
1.848,324
1.849,323
1.85,322
1.851,323
1.852,322
1.853,322
1.854,322
1.855,321
1.856,323
1.857,321
1.858,323
1.859,322
1.86,322
1.861,322
1.862,322
1.863,322
1.864,321
1.865,321
1.866,322
1.867,323
1.868,322
1.869,322
1.87,322
1.871,322
1.872,322
1.873,322
1.874,323
1.875,323
1.876,322
1.877,322
1.878,323
1.879,322
1.88,322
1.881,323
1.882,323
1.883,323
1.884,322
1.885,322
1.886,322
1.887,322
1.888,322
1.889,322
1.89,322
1.891,322
1.892,323
1.893,322
1.894,321
1.895,321
1.896,322
1.897,321
1.898,321
1.899,321
1.9,322
1.901,321
1.902,321
1.903,321
1.904,321
1.905,321
1.906,321
1.907,321
1.908,321
1.909,321
1.91,322
1.911,322
1.912,322
1.913,323
1.914,322
1.915,322
1.916,323
1.917,323
1.918,322
1.919,322
1.92,322
1.921,323
1.922,322
1.923,322
1.924,322
1.925,323
1.926,321
1.927,322
1.928,322
1.929,323
1.93,323
1.931,321
1.932,321
1.933,322
1.934,321
1.935,321
1.936,321
1.937,323
1.938,322
1.939,322
1.94,322
1.941,322
1.942,322
1.943,322
1.944,322
1.945,323
1.946,322
1.947,322
1.948,322
1.949,322
1.95,323
1.951,323
1.952,322
1.953,322
1.954,322
1.955,322
1.956,321
1.957,321
1.958,322
1.959,322
1.96,321
1.961,321
1.962,321
1.963,321
1.964,321
1.965,321
1.966,321
1.967,322
1.968,322
1.969,322
1.97,323
1.971,322
1.972,322
1.973,322
1.974,323
1.975,322
1.976,322
1.977,323
1.978,322
1.979,322
1.98,323
1.981,322
1.982,322
1.983,322
1.984,322
1.985,322
1.986,322
1.987,321
1.988,321
1.989,321
1.99,321
1.991,322
1.992,322
1.993,321
1.994,321
1.995,322
1.996,322
1.997,322
1.998,321
1.999,321
2,321
2.001,322
2.002,321
2.003,321
2.004,322
2.005,321
2.006,322
2.007,322
2.008,322
2.009,322
2.01,322
2.011,322
2.012,324
2.013,323
2.014,322
2.015,324
2.016,323
2.017,323
2.018,322
2.019,323
2.02,323
2.021,322
2.022,321
2.023,323
2.024,321
2.025,322
2.026,322
2.027,323
2.028,321
2.029,322
2.03,320
2.031,321
2.032,322
2.033,321
2.034,322
2.035,321
2.036,321
2.037,322
2.038,321
2.039,322
2.04,322
2.041,322
2.042,322
2.043,322
2.044,323
2.045,323
2.046,322
2.047,323
2.048,323
2.049,322
2.05,322
2.051,323
2.052,322
2.053,322
2.054,323
2.055,322
2.056,323
2.057,323
2.058,322
2.059,321
2.06,321
2.061,322
2.062,322
2.063,322
2.064,321
2.065,322
2.066,321
2.067,322
2.068,322
2.069,322
2.07,322
2.071,322
2.072,322
2.073,321
2.074,321
2.075,322
2.076,322
2.077,322
2.078,322
2.079,322
2.08,321
2.081,322
2.082,321
2.083,322
2.084,322
2.085,322
2.086,322
2.087,323
2.088,322
2.089,323
2.09,322
2.091,322
2.092,322
2.093,323
2.094,322
2.095,322
2.096,321
2.097,321
2.098,322
2.099,321
2.1,321
2.101,323
2.102,323
2.103,321
2.104,321
2.105,322
2.106,321
2.107,321
2.108,321
2.109,323
2.11,322
2.111,322
2.112,322
2.113,322
2.114,322
2.115,321
2.116,322
2.117,322
2.118,322
2.119,322
2.12,321
2.121,322
2.122,322
2.123,322
2.124,322
2.125,322
2.126,322
2.127,323
2.128,323
2.129,322
2.13,321
2.131,321
2.132,321
2.133,321
2.134,320
2.135,321
2.136,321
2.137,320
2.138,322
2.139,320
2.14,320
2.141,321
2.142,321
2.143,320
2.144,321
2.145,321
2.146,322
2.147,322
2.148,322
2.149,321
2.15,322
2.151,322
2.152,322
2.153,321
2.154,322
2.155,323
2.156,323
2.157,323
2.158,323
2.159,323
2.16,325
2.161,324
2.162,324
2.163,324
2.164,324
2.165,325
2.166,324
2.167,324
2.168,323
2.169,323
2.17,324
2.171,324
2.172,324
2.173,323
2.174,322
2.175,322
2.176,320
2.177,321
2.178,321
2.179,322
2.18,321
2.181,321
2.182,321
2.183,321
2.184,320
2.185,321
2.186,321
2.187,320
2.188,321
2.189,322
2.19,321
2.191,322
2.192,322
2.193,321
2.194,322
2.195,322
2.196,322
2.197,322
2.198,322
2.199,323
2.2,322
2.201,322
2.202,322
2.203,321
2.204,321
2.205,322
2.206,321
2.207,322
2.208,320
2.209,320
2.21,321
2.211,321
2.212,322
2.213,321
2.214,322
2.215,322
2.216,322
2.217,321
2.218,321
2.219,320
2.22,322
2.221,321
2.222,321
2.223,321
2.224,320
2.225,321
2.226,322
2.227,322
2.228,321
2.229,321
2.23,321
2.231,322
2.232,322
2.233,322
2.234,322
2.235,322
2.236,322
2.237,322
2.238,322
2.239,322
2.24,323
2.241,323
2.242,324
2.243,322
2.244,322
2.245,321
2.246,322
2.247,321
2.248,322
2.249,323
2.25,322
2.251,323
2.252,323
2.253,322
2.254,321
2.255,321
2.256,322
2.257,322
2.258,322
2.259,322
2.26,322
2.261,322
2.262,322
2.263,321
2.264,321
2.265,320
2.266,321
2.267,322
2.268,322
2.269,323
2.27,322
2.271,322
2.272,322
2.273,323
2.274,322
2.275,323
2.276,322
2.277,324
2.278,322
2.279,321
2.28,322
2.281,323
2.282,322
2.283,322
2.284,322
2.285,323
2.286,323
2.287,323
2.288,322
2.289,322
2.29,321
2.291,322
2.292,322
2.293,321
2.294,322
2.295,322
2.296,323
2.297,324
2.298,322
2.299,322
2.3,322
2.301,321
2.302,322
2.303,322
2.304,321
2.305,322
2.306,321
2.307,322
2.308,322
2.309,322
2.31,322
2.311,322
2.312,322
2.313,321
2.314,320
2.315,320
2.316,320
2.317,322
2.318,322
2.319,322
2.32,321
2.321,321
2.322,323
2.323,323
2.324,323
2.325,323
2.326,322
2.327,322
2.328,322
2.329,322
2.33,323
2.331,322
2.332,321
2.333,322
2.334,322
2.335,322
2.336,323
2.337,322
2.338,322
2.339,321
2.34,322
2.341,321
2.342,323
2.343,322
2.344,322
2.345,323
2.346,323
2.347,322
2.348,322
2.349,322
2.35,321
2.351,321
2.352,322
2.353,321
2.354,322
2.355,323
2.356,323
2.357,323
2.358,322
2.359,323
2.36,322
2.361,322
2.362,322
2.363,321
2.364,322
2.365,322
2.366,322
2.367,323
2.368,322
2.369,322
2.37,322
2.371,322
2.372,322
2.373,322
2.374,322
2.375,322
2.376,323
2.377,323
2.378,322
2.379,322
2.38,323
2.381,322
2.382,322
2.383,322
2.384,322
2.385,323
2.386,322
2.387,321
2.388,321
2.389,321
2.39,321
2.391,321
2.392,322
2.393,322
2.394,321
2.395,323
2.396,322
2.397,322
2.398,322
2.399,322
2.4,321
2.401,321
2.402,321
2.403,321
2.404,321
2.405,322
2.406,322
2.407,322
2.408,322
2.409,321
2.41,321
2.411,320
2.412,321
2.413,321
2.414,321
2.415,320
2.416,320
2.417,321
2.418,322
2.419,322
2.42,321
2.421,321
2.422,324
2.423,323
2.424,322
2.425,323
2.426,322
2.427,322
2.428,322
2.429,323
2.43,322
2.431,322
2.432,321
2.433,321
2.434,322
2.435,322
2.436,322
2.437,322
2.438,322
2.439,321
2.44,321
2.441,321
2.442,320
2.443,321
2.444,320
2.445,322
2.446,322
2.447,323
2.448,323
2.449,322
2.45,322
2.451,322
2.452,321
2.453,323
2.454,321
2.455,322
2.456,320
2.457,322
2.458,322
2.459,322
2.46,321
2.461,321
2.462,322
2.463,322
2.464,322
2.465,323
2.466,322
2.467,322
2.468,321
2.469,321
2.47,322
2.471,321
2.472,322
2.473,322
2.474,321
2.475,322
2.476,322
2.477,322
2.478,322
2.479,322
2.48,323
2.481,322
2.482,323
2.483,323
2.484,322
2.485,322
2.486,322
2.487,323
2.488,321
2.489,322
2.49,322
2.491,321
2.492,322
2.493,322
2.494,320
2.495,320
2.496,320
2.497,320
2.498,320
2.499,320
2.5,320
2.501,321
2.502,321
2.503,321
2.504,322
2.505,323
2.506,322
2.507,323
2.508,323
2.509,322
2.51,324
2.511,322
2.512,322
2.513,324
2.514,323
2.515,322
2.516,322
2.517,321
2.518,321
2.519,322
2.52,322
2.521,322
2.522,322
2.523,323
2.524,321
2.525,321
2.526,322
2.527,322
2.528,322
2.529,323
2.53,323
2.531,323
2.532,323
2.533,323
2.534,323
2.535,323
2.536,322
2.537,321
2.538,322
2.539,322
2.54,322
2.541,322
2.542,322
2.543,322
2.544,321
2.545,322
2.546,322
2.547,324
2.548,322
2.549,322
2.55,321
2.551,322
2.552,322
2.553,322
2.554,322
2.555,321
2.556,321
2.557,322
2.558,322
2.559,323
2.56,321
2.561,322
2.562,322
2.563,323
2.564,323
2.565,323
2.566,322
2.567,321
2.568,322
2.569,321
2.57,321
2.571,322
2.572,321
2.573,321
2.574,320
2.575,322
2.576,322
2.577,321
2.578,321
2.579,321
2.58,322
2.581,322
2.582,322
2.583,322
2.584,322
2.585,323
2.586,323
2.587,322
2.588,322
2.589,322
2.59,322
2.591,321
2.592,321
2.593,322
2.594,322
2.595,323
2.596,322
2.597,322
2.598,322
2.599,321
2.6,322
2.601,322
2.602,322
2.603,322
2.604,322
2.605,323
2.606,323
2.607,324
2.608,323
2.609,323
2.61,322
2.611,322
2.612,322
2.613,322
2.614,322
2.615,323
2.616,322
2.617,321
2.618,323
2.619,322
2.62,322
2.621,322
2.622,322
2.623,322
2.624,323
2.625,321
2.626,321
2.627,322
2.628,322
2.629,322
2.63,322
2.631,321
2.632,322
2.633,322
2.634,322
2.635,322
2.636,321
2.637,321
2.638,320
2.639,322
2.64,322
2.641,323
2.642,322
2.643,322
2.644,322
2.645,323
2.646,323
2.647,322
2.648,322
2.649,322
2.65,322
2.651,322
2.652,322
2.653,322
2.654,323
2.655,322
2.656,321
2.657,323
2.658,322
2.659,322
2.66,323
2.661,322
2.662,322
2.663,322
2.664,321
2.665,322
2.666,321
2.667,322
2.668,322
2.669,322
2.67,321
2.671,321
2.672,321
2.673,320
2.674,320
2.675,322
2.676,322
2.677,322
2.678,322
2.679,321
2.68,322
2.681,322
2.682,322
2.683,323
2.684,322
2.685,323
2.686,322
2.687,322
2.688,322
2.689,322
2.69,323
2.691,322
2.692,322
2.693,322
2.694,323
2.695,322
2.696,323
2.697,322
2.698,322
2.699,322
2.7,322
2.701,322
2.702,323
2.703,322
2.704,322
2.705,323
2.706,323
2.707,323
2.708,322
2.709,322
2.71,321
2.711,321
2.712,320
2.713,322
2.714,322
2.715,323
2.716,322
2.717,322
2.718,323
2.719,322
2.72,322
2.721,322
2.722,323
2.723,322
2.724,322
2.725,322
2.726,322
2.727,321
2.728,322
2.729,322
2.73,321
2.731,323
2.732,321
2.733,321
2.734,321
2.735,322
2.736,322
2.737,321
2.738,321
2.739,322
2.74,321
2.741,321
2.742,321
2.743,321
2.744,323
2.745,322
2.746,322
2.747,323
2.748,322
2.749,323
2.75,322
2.751,322
2.752,322
2.753,322
2.754,322
2.755,322
2.756,323
2.757,322
2.758,322
2.759,322
2.76,321
2.761,321
2.762,321
2.763,320
2.764,322
2.765,322
2.766,321
2.767,321
2.768,321
2.769,321
2.77,321
2.771,322
2.772,322
2.773,322
2.774,323
2.775,322
2.776,321
2.777,321
2.778,321
2.779,322
2.78,322
2.781,322
2.782,321
2.783,321
2.784,321
2.785,321
2.786,321
2.787,321
2.788,321
2.789,320
2.79,321
2.791,319
2.792,321
2.793,320
2.794,321
2.795,322
2.796,322
2.797,322
2.798,321
2.799,322
2.8,322
2.801,323
2.802,323
2.803,322
2.804,324
2.805,322
2.806,325
2.807,325
2.808,324
2.809,326
2.81,325
2.811,324
2.812,325
2.813,324
2.814,325
2.815,324
2.816,325
2.817,325
2.818,325
2.819,324
2.82,324
2.821,324
2.822,323
2.823,322
2.824,322
2.825,321
2.826,320
2.827,321
2.828,320
2.829,322
2.83,320
2.831,321
2.832,321
2.833,322
2.834,321
2.835,321
2.836,321
2.837,321
2.838,322
2.839,321
2.84,322
2.841,322
2.842,322
2.843,322
2.844,321
2.845,321
2.846,320
2.847,321
2.848,321
2.849,320
2.85,321
2.851,322
2.852,322
2.853,320
2.854,321
2.855,322
2.856,321
2.857,321
2.858,321
2.859,321
2.86,322
2.861,322
2.862,321
2.863,322
2.864,322
2.865,322
2.866,322
2.867,322
2.868,321
2.869,320
2.87,321
2.871,321
2.872,320
2.873,321
2.874,322
2.875,322
2.876,322
2.877,321
2.878,322
2.879,322
2.88,323
2.881,322
2.882,322
2.883,323
2.884,322
2.885,322
2.886,322
2.887,322
2.888,322
2.889,323
2.89,321
2.891,321
2.892,321
2.893,320
2.894,321
2.895,320
2.896,320
2.897,322
2.898,323
2.899,323
2.9,323
2.901,323
2.902,322
2.903,323
2.904,322
2.905,322
2.906,323
2.907,323
2.908,323
2.909,322
2.91,322
2.911,321
2.912,322
2.913,322
2.914,322
2.915,323
2.916,322
2.917,322
2.918,321
2.919,322
2.92,321
2.921,322
2.922,322
2.923,322
2.924,322
2.925,323
2.926,323
2.927,324
2.928,322
2.929,321
2.93,322
2.931,323
2.932,322
2.933,321
2.934,322
2.935,322
2.936,322
2.937,322
2.938,322
2.939,322
2.94,322
2.941,322
2.942,322
2.943,321
2.944,322
2.945,323
2.946,322
2.947,323
2.948,322
2.949,322
2.95,322
2.951,322
2.952,322
2.953,321
2.954,320
2.955,321
2.956,322
2.957,322
2.958,322
2.959,322
2.96,322
2.961,322
2.962,323
2.963,322
2.964,323
2.965,323
2.966,322
2.967,322
2.968,321
2.969,321
2.97,322
2.971,322
2.972,322
2.973,322
2.974,323
2.975,322
2.976,322
2.977,320
2.978,321
2.979,320
2.98,321
2.981,322
2.982,322
2.983,322
2.984,322
2.985,322
2.986,323
2.987,322
2.988,322
2.989,322
2.99,321
2.991,322
2.992,323
2.993,323
2.994,323
2.995,323
2.996,323
2.997,322
2.998,322
2.999,323
3,322
3.001,323
3.002,322
3.003,322
3.004,323
3.005,323
3.006,322
3.007,322
3.008,323
3.009,321
3.01,322
3.011,321
3.012,320
3.013,322
3.014,321
3.015,321
3.016,321
3.017,323
3.018,322
3.019,322
3.02,322
3.021,322
3.022,323
3.023,324
3.024,322
3.025,324
3.026,322
3.027,323
3.028,322
3.029,322
3.03,323
3.031,322
3.032,322
3.033,322
3.034,322
3.035,322
3.036,320
3.037,321
3.038,322
3.039,321
3.04,321
3.041,320
3.042,321
3.043,322
3.044,322
3.045,322
3.046,322
3.047,322
3.048,322
3.049,323
3.05,322
3.051,322
3.052,323
3.053,322
3.054,322
3.055,322
3.056,322
3.057,322
3.058,323
3.059,322
3.06,322
3.061,322
3.062,322
3.063,321
3.064,322
3.065,321
3.066,321
3.067,321
3.068,320
3.069,321
3.07,320
3.071,321
3.072,321
3.073,321
3.074,321
3.075,321
3.076,321
3.077,321
3.078,322
3.079,323
3.08,322
3.081,323
3.082,321
3.083,322
3.084,322
3.085,322
3.086,322
3.087,323
3.088,321
3.089,321
3.09,321
3.091,321
3.092,320
3.093,321
3.094,321
3.095,320
3.096,322
3.097,322
3.098,321
3.099,321
3.1,321
3.101,322
3.102,322
3.103,322
3.104,322
3.105,322
3.106,322
3.107,321
3.108,322
3.109,322
3.11,322
3.111,321
3.112,321
3.113,321
3.114,321
3.115,322
3.116,322
3.117,322
3.118,321
3.119,322
3.12,322
3.121,322
3.122,321
3.123,322
3.124,321
3.125,322
3.126,322
3.127,321
3.128,321
3.129,322
3.13,322
3.131,322
3.132,321
3.133,321
3.134,322
3.135,322
3.136,322
3.137,321
3.138,321
3.139,322
3.14,322
3.141,322
3.142,323
3.143,322
3.144,322
3.145,322
3.146,322
3.147,322
3.148,322
3.149,322
3.15,322
3.151,322
3.152,322
3.153,322
3.154,322
3.155,322
3.156,322
3.157,322
3.158,322
3.159,322
3.16,323
3.161,322
3.162,321
3.163,322
3.164,320
3.165,321
3.166,322
3.167,321
3.168,322
3.169,322
3.17,322
3.171,321
3.172,321
3.173,322
3.174,321
3.175,322
3.176,322
3.177,322
3.178,322
3.179,322
3.18,324
3.181,324
3.182,322
3.183,324
3.184,322
3.185,321
3.186,321
3.187,322
3.188,323
3.189,322
3.19,322
3.191,322
3.192,322
3.193,322
3.194,322
3.195,321
3.196,321
3.197,321
3.198,321
3.199,322
3.2,322
3.201,322
3.202,322
3.203,323
3.204,323
3.205,322
3.206,322
3.207,322
3.208,321
3.209,321
3.21,322
3.211,322
3.212,321
3.213,321
3.214,321
3.215,322
3.216,322
3.217,322
3.218,322
3.219,323
3.22,323
3.221,322
3.222,322
3.223,321
3.224,321
3.225,321
3.226,322
3.227,322
3.228,322
3.229,321
3.23,321
3.231,321
3.232,322
3.233,322
3.234,321
3.235,320
3.236,321
3.237,322
3.238,322
3.239,321
3.24,322
3.241,323
3.242,322
3.243,323
3.244,322
3.245,322
3.246,322
3.247,322
3.248,322
3.249,321
3.25,322
3.251,323
3.252,322
3.253,323
3.254,323
3.255,322
3.256,321
3.257,321
3.258,321
3.259,321
3.26,320
3.261,321
3.262,321
3.263,321
3.264,321
3.265,323
3.266,323
3.267,323
3.268,323
3.269,322
3.27,321
3.271,322
3.272,322
3.273,323
3.274,323
3.275,323
3.276,322
3.277,322
3.278,323
3.279,323
3.28,322
3.281,321
3.282,322
3.283,321
3.284,321
3.285,321
3.286,321
3.287,322
3.288,321
3.289,322
3.29,321
3.291,322
3.292,323
3.293,322
3.294,323
3.295,323
3.296,322
3.297,322
3.298,321
3.299,322
3.3,322
3.301,322
3.302,322
3.303,321
3.304,322
3.305,324
3.306,323
3.307,321
3.308,321
3.309,322
3.31,322
3.311,321
3.312,321
3.313,322
3.314,321
3.315,320
3.316,321
3.317,321
3.318,321
3.319,322
3.32,322
3.321,322
3.322,322
3.323,322
3.324,322
3.325,322
3.326,322
3.327,323
3.328,321
3.329,322
3.33,322
3.331,322
3.332,321
3.333,322
3.334,321
3.335,322
3.336,322
3.337,322
3.338,322
3.339,322
3.34,323
3.341,323
3.342,322
3.343,322
3.344,323
3.345,322
3.346,322
3.347,323
3.348,323
3.349,322
3.35,322
3.351,321
3.352,322
3.353,321
3.354,321
3.355,321
3.356,321
3.357,322
3.358,321
3.359,322
3.36,322
3.361,323
3.362,320
3.363,321
3.364,322
3.365,322
3.366,322
3.367,323
3.368,322
3.369,321
3.37,321
3.371,321
3.372,321
3.373,321
3.374,320
3.375,321
3.376,323
3.377,322
3.378,322
3.379,322
3.38,321
3.381,322
3.382,321
3.383,322
3.384,323
3.385,321
3.386,321
3.387,321
3.388,322
3.389,323
3.39,321
3.391,322
3.392,321
3.393,321
3.394,321
3.395,321
3.396,321
3.397,321
3.398,323
3.399,322
3.4,321
3.401,321
3.402,322
3.403,323
3.404,323
3.405,323
3.406,322
3.407,323
3.408,323
3.409,322
3.41,323
3.411,322
3.412,323
3.413,322
3.414,322
3.415,322
3.416,322
3.417,321
3.418,321
3.419,321
3.42,321
3.421,321
3.422,322
3.423,322
3.424,322
3.425,320
3.426,321
3.427,321
3.428,320
3.429,321
3.43,321
3.431,320
3.432,321
3.433,321
3.434,321
3.435,320
3.436,321
3.437,321
3.438,321
3.439,321
3.44,321
3.441,321
3.442,320
3.443,321
3.444,323
3.445,322
3.446,323
3.447,322
3.448,322
3.449,323
3.45,322
3.451,324
3.452,324
3.453,325
3.454,325
3.455,326
3.456,324
3.457,325
3.458,324
3.459,324
3.46,324
3.461,325
3.462,324
3.463,326
3.464,324
3.465,324
3.466,323
3.467,324
3.468,323
3.469,323
3.47,321
3.471,322
3.472,322
3.473,322
3.474,322
3.475,323
3.476,321
3.477,321
3.478,321
3.479,322
3.48,321
3.481,320
3.482,321
3.483,321
3.484,320
3.485,320
3.486,320
3.487,321
3.488,321
3.489,320
3.49,321
3.491,322
3.492,323
3.493,322
3.494,322
3.495,322
3.496,322
3.497,321
3.498,322
3.499,322
3.5,322
3.501,322
3.502,322
3.503,323
3.504,322
3.505,323
3.506,322
3.507,321
3.508,322
3.509,321
3.51,322
3.511,320
3.512,321
3.513,321
3.514,322
3.515,321
3.516,321
3.517,322
3.518,322
3.519,322
3.52,322
3.521,322
3.522,321
3.523,322
3.524,321
3.525,321
3.526,321
3.527,321
3.528,321
3.529,321
3.53,322
3.531,322
3.532,323
3.533,322
3.534,322
3.535,322
3.536,323
3.537,323
3.538,322
3.539,322
3.54,322
3.541,321
3.542,322
3.543,321
3.544,322
3.545,323
3.546,322
3.547,321
3.548,322
3.549,322
3.55,321
3.551,321
3.552,321
3.553,322
3.554,322
3.555,321
3.556,322
3.557,322
3.558,322
3.559,322
3.56,323
3.561,324
3.562,323
3.563,322
3.564,321
3.565,321
3.566,321
3.567,321
3.568,322
3.569,322
3.57,321
3.571,322
3.572,322
3.573,323
3.574,323
3.575,322
3.576,321
3.577,321
3.578,322
3.579,322
3.58,322
3.581,322
3.582,321
3.583,321
3.584,321
3.585,322
3.586,323
3.587,322
3.588,322
3.589,323
3.59,323
3.591,322
3.592,321
3.593,322
3.594,322
3.595,322
3.596,322
3.597,322
3.598,322
3.599,322
3.6,322
3.601,323
3.602,323
3.603,323
3.604,323
3.605,324
3.606,322
3.607,322
3.608,321
3.609,321
3.61,320
3.611,321
3.612,321
3.613,322
3.614,322
3.615,322
3.616,322
3.617,322
3.618,323
3.619,322
3.62,323
3.621,323
3.622,322
3.623,322
3.624,323
3.625,322
3.626,322
3.627,323
3.628,323
3.629,322
3.63,322
3.631,324
3.632,322
3.633,322
3.634,321
3.635,322
3.636,321
3.637,321
3.638,321
3.639,322
3.64,322
3.641,322
3.642,321
3.643,323
3.644,323
3.645,322
3.646,322
3.647,322
3.648,322
3.649,322
3.65,323
3.651,324
3.652,322
3.653,321
3.654,321
3.655,322
3.656,321
3.657,321
3.658,321
3.659,322
3.66,321
3.661,322
3.662,323
3.663,323
3.664,322
3.665,322
3.666,322
3.667,322
3.668,322
3.669,322
3.67,322
3.671,322
3.672,323
3.673,322
3.674,323
3.675,322
3.676,323
3.677,322
3.678,322
3.679,322
3.68,322
3.681,322
3.682,322
3.683,321
3.684,321
3.685,321
3.686,322
3.687,322
3.688,323
3.689,322
3.69,320
3.691,321
3.692,322
3.693,323
3.694,322
3.695,323
3.696,322
3.697,322
3.698,322
3.699,322
3.7,321
3.701,322
3.702,322
3.703,322
3.704,322
3.705,320
3.706,320
3.707,322
3.708,322
3.709,323
3.71,323
3.711,323
3.712,323
3.713,322
3.714,322
3.715,322
3.716,322
3.717,321
3.718,321
3.719,321
3.72,321
3.721,321
3.722,320
3.723,321
3.724,321
3.725,321
3.726,321
3.727,322
3.728,323
3.729,322
3.73,322
3.731,322
3.732,321
3.733,323
3.734,321
3.735,322
3.736,323
3.737,322
3.738,322
3.739,323
3.74,322
3.741,322
3.742,322
3.743,322
3.744,321
3.745,322
3.746,321
3.747,321
3.748,321
3.749,322
3.75,320
3.751,321
3.752,321
3.753,322
3.754,321
3.755,322
3.756,322
3.757,322
3.758,321
3.759,321
3.76,322
3.761,322
3.762,321
3.763,321
3.764,322
3.765,322
3.766,323
3.767,322
3.768,322
3.769,322
3.77,322
3.771,322
3.772,322
3.773,321
3.774,322
3.775,322
3.776,322
3.777,321
3.778,321
3.779,321
3.78,321
3.781,322
3.782,321
3.783,320
3.784,321
3.785,321
3.786,322
3.787,322
3.788,323
3.789,322
3.79,323
3.791,323
3.792,322
3.793,322
3.794,321
3.795,321
3.796,320
3.797,321
3.798,321
3.799,321
3.8,322
3.801,322
3.802,323
3.803,323
3.804,322
3.805,322
3.806,322
3.807,322
3.808,322
3.809,322
3.81,322
3.811,322
3.812,323
3.813,322
3.814,322
3.815,323
3.816,322
3.817,321
3.818,322
3.819,323
3.82,322
3.821,321
3.822,322
3.823,323
3.824,322
3.825,321
3.826,321
3.827,322
3.828,321
3.829,322
3.83,322
3.831,321
3.832,322
3.833,322
3.834,322
3.835,322
3.836,323
3.837,322
3.838,322
3.839,323
3.84,322
3.841,322
3.842,322
3.843,323
3.844,322
3.845,321
3.846,321
3.847,320
3.848,320
3.849,321
3.85,321
3.851,321
3.852,320
3.853,321
3.854,322
3.855,322
3.856,322
3.857,322
3.858,323
3.859,322
3.86,323
3.861,322
3.862,323
3.863,323
3.864,322
3.865,322
3.866,323
3.867,322
3.868,321
3.869,322
3.87,322
3.871,321
3.872,322
3.873,322
3.874,321
3.875,322
3.876,322
3.877,322
3.878,322
3.879,321
3.88,322
3.881,322
3.882,322
3.883,323
3.884,322
3.885,323
3.886,323
3.887,321
3.888,321
3.889,321
3.89,321
3.891,322
3.892,321
3.893,322
3.894,321
3.895,322
3.896,322
3.897,321
3.898,321
3.899,321
3.9,321
3.901,322
3.902,320
3.903,322
3.904,321
3.905,320
3.906,321
3.907,321
3.908,321
3.909,322
3.91,321
3.911,322
3.912,322
3.913,322
3.914,322
3.915,322
3.916,322
3.917,322
3.918,322
3.919,322
3.92,323
3.921,322
3.922,322
3.923,322
3.924,322
3.925,322
3.926,322
3.927,322
3.928,323
3.929,323
3.93,322
3.931,321
3.932,322
3.933,321
3.934,323
3.935,323
3.936,322
3.937,322
3.938,321
3.939,322
3.94,322
3.941,322
3.942,321
3.943,321
3.944,320
3.945,322
3.946,320
3.947,320
3.948,321
3.949,321
3.95,322
3.951,322
3.952,322
3.953,321
3.954,322
3.955,323
3.956,322
3.957,322
3.958,321
3.959,322
3.96,322
3.961,323
3.962,321
3.963,321
3.964,321
3.965,322
3.966,323
3.967,323
3.968,323
3.969,323
3.97,322
3.971,321
3.972,322
3.973,321
3.974,321
3.975,321
3.976,321
3.977,322
3.978,322
3.979,323
3.98,323
3.981,323
3.982,323
3.983,322
3.984,322
3.985,322
3.986,320
3.987,321
3.988,322
3.989,322
3.99,321
3.991,321
3.992,321
3.993,322
3.994,322
3.995,322
3.996,320
3.997,321
3.998,321
3.999,322
4,322
4.001,321
4.002,322
4.003,322
4.004,322
4.005,323
4.006,323
4.007,325
4.008,322
4.009,323
4.01,321
4.011,322
4.012,321
4.013,321
4.014,322
4.015,322
4.016,322
4.017,322
4.018,322
4.019,321
4.02,322
4.021,321
4.022,321
4.023,322
4.024,321
4.025,322
4.026,322
4.027,321
4.028,322
4.029,321
4.03,321
4.031,322
4.032,321
4.033,321
4.034,321
4.035,321
4.036,321
4.037,320
4.038,322
4.039,321
4.04,321
4.041,321
4.042,321
4.043,321
4.044,322
4.045,322
4.046,323
4.047,323
4.048,322
4.049,322
4.05,321
4.051,321
4.052,322
4.053,321
4.054,322
4.055,322
4.056,322
4.057,322
4.058,322
4.059,322
4.06,322
4.061,323
4.062,323
4.063,322
4.064,322
4.065,322
4.066,321
4.067,322
4.068,322
4.069,322
4.07,321
4.071,322
4.072,322
4.073,322
4.074,322
4.075,322
4.076,322
4.077,323
4.078,323
4.079,322
4.08,322
4.081,321
4.082,321
4.083,322
4.084,322
4.085,322
4.086,322
4.087,322
4.088,322
4.089,320
4.09,321
4.091,322
4.092,321
4.093,322
4.094,320
4.095,320
4.096,321
4.097,322
4.098,320
4.099,320
4.1,321
4.101,321
4.102,320
4.103,321
4.104,321
4.105,321
4.106,322
4.107,321
4.108,321
4.109,323
4.11,322
4.111,322
4.112,322
4.113,323
4.114,323
4.115,322
4.116,324
4.117,324
4.118,325
4.119,324
4.12,326
4.121,325
4.122,325
4.123,324
4.124,324
4.125,325
4.126,325
4.127,325
4.128,324
4.129,323
4.13,325
4.131,325
4.132,324
4.133,323
4.134,324
4.135,323
4.136,322
4.137,322
4.138,322
4.139,321
4.14,320
4.141,321
4.142,320
4.143,322
4.144,321
4.145,320
4.146,320
4.147,320
4.148,320
4.149,321
4.15,320
4.151,320
4.152,322
4.153,321
4.154,322
4.155,322
4.156,322
4.157,322
4.158,321
4.159,320
4.16,320
4.161,320
4.162,320
4.163,321
4.164,321
4.165,321
4.166,321
4.167,321
4.168,321
4.169,321
4.17,321
4.171,321
4.172,322
4.173,323
4.174,322
4.175,322
4.176,321
4.177,321
4.178,322
4.179,322
4.18,323
4.181,323
4.182,322
4.183,321
4.184,322
4.185,321
4.186,321
4.187,322
4.188,321
4.189,321
4.19,321
4.191,321
4.192,321
4.193,321
4.194,322
4.195,323
4.196,322
4.197,322
4.198,322
4.199,322
4.2,322
4.201,322
4.202,323
4.203,324
4.204,323
4.205,323
4.206,323
4.207,323
4.208,322
4.209,322
4.21,321
4.211,322
4.212,322
4.213,321
4.214,321
4.215,322
4.216,321
4.217,322
4.218,322
4.219,321
4.22,322
4.221,322
4.222,321
4.223,321
4.224,323
4.225,323
4.226,323
4.227,322
4.228,322
4.229,322
4.23,321
4.231,321
4.232,321
4.233,322
4.234,322
4.235,322
4.236,321
4.237,322
4.238,322
4.239,322
4.24,323
4.241,322
4.242,322
4.243,322
4.244,322
4.245,322
4.246,322
4.247,323
4.248,322
4.249,323
4.25,322
4.251,322
4.252,322
4.253,322
4.254,322
4.255,321
4.256,321
4.257,322
4.258,322
4.259,323
4.26,322
4.261,322
4.262,322
4.263,321
4.264,320
4.265,321
4.266,321
4.267,320
4.268,322
4.269,323
4.27,321
4.271,321
4.272,321
4.273,322
4.274,322
4.275,322
4.276,323
4.277,322
4.278,323
4.279,322
4.28,322
4.281,322
4.282,322
4.283,323
4.284,323
4.285,324
4.286,323
4.287,323
4.288,324
4.289,321
4.29,321
4.291,321
4.292,322
4.293,323
4.294,321
4.295,322
4.296,322
4.297,323
4.298,324
4.299,322
4.3,323
4.301,322
4.302,322
4.303,322
4.304,322
4.305,323
4.306,323
4.307,322
4.308,322
4.309,322
4.31,322
4.311,323
4.312,323
4.313,322
4.314,323
4.315,322
4.316,321
4.317,321
4.318,322
4.319,322
4.32,322
4.321,323
4.322,322
4.323,322
4.324,321
4.325,322
4.326,321
4.327,321
4.328,321
4.329,320
4.33,322
4.331,321
4.332,321
4.333,321
4.334,321
4.335,322
4.336,322
4.337,322
4.338,322
4.339,322
4.34,322
4.341,323
4.342,322
4.343,323
4.344,322
4.345,323
4.346,322
4.347,321
4.348,320
4.349,322
4.35,321
4.351,321
4.352,322
4.353,321
4.354,322
4.355,322
4.356,322
4.357,321
4.358,322
4.359,323
4.36,321
4.361,321
4.362,322
4.363,322
4.364,323
4.365,323
4.366,322
4.367,323
4.368,322
4.369,322
4.37,322
4.371,324
4.372,322
4.373,323
4.374,322
4.375,323
4.376,322
4.377,323
4.378,322
4.379,324
4.38,322
4.381,323
4.382,321
4.383,321
4.384,321
4.385,321
4.386,321
4.387,322
4.388,322
4.389,322
4.39,322
4.391,322
4.392,322
4.393,321
4.394,321
4.395,321
4.396,320
4.397,320
4.398,320
4.399,321
4.4,321
4.401,321
4.402,322
4.403,321
4.404,322
4.405,323
4.406,322
4.407,321
4.408,321
4.409,321
4.41,322
4.411,322
4.412,322
4.413,322
4.414,322
4.415,322
4.416,323
4.417,323
4.418,322
4.419,323
4.42,322
4.421,322
4.422,322
4.423,322
4.424,320
4.425,320
4.426,321
4.427,321
4.428,321
4.429,321
4.43,320
4.431,321
4.432,321
4.433,323
4.434,322
4.435,324
4.436,322
4.437,322
4.438,323
4.439,322
4.44,324
4.441,322
4.442,323
4.443,322
4.444,323
4.445,323
4.446,323
4.447,322
4.448,323
4.449,323
4.45,322
4.451,322
4.452,322
4.453,322
4.454,321
4.455,321
4.456,321
4.457,322
4.458,321
4.459,320
4.46,321
4.461,322
4.462,321
4.463,322
4.464,323
4.465,324
4.466,322
4.467,323
4.468,323
4.469,322
4.47,322
4.471,322
4.472,321
4.473,322
4.474,321
4.475,324
4.476,323
4.477,322
4.478,322
4.479,322
4.48,322
4.481,323
4.482,322
4.483,322
4.484,323
4.485,322
4.486,321
4.487,321
4.488,323
4.489,322
4.49,322
4.491,322
4.492,322
4.493,321
4.494,322
4.495,322
4.496,321
4.497,321
4.498,321
4.499,321
4.5,321
4.501,322
4.502,321
4.503,321
4.504,322
4.505,323
4.506,322
4.507,322
4.508,322
4.509,322
4.51,321
4.511,322
4.512,321
4.513,321
4.514,321
4.515,320
4.516,321
4.517,321
4.518,322
4.519,322
4.52,323
4.521,323
4.522,322
4.523,322
4.524,322
4.525,321
4.526,323
4.527,322
4.528,322
4.529,321
4.53,321
4.531,321
4.532,322
4.533,322
4.534,322
4.535,323
4.536,322
4.537,322
4.538,321
4.539,322
4.54,322
4.541,322
4.542,322
4.543,323
4.544,322
4.545,322
4.546,323
4.547,324
4.548,322
4.549,323
4.55,322
4.551,322
4.552,322
4.553,322
4.554,322
4.555,323
4.556,322
4.557,321
4.558,321
4.559,322
4.56,321
4.561,321
4.562,321
4.563,322
4.564,321
4.565,321
4.566,322
4.567,323
4.568,322
4.569,323
4.57,321
4.571,321
4.572,322
4.573,321
4.574,322
4.575,322
4.576,322
4.577,322
4.578,323
4.579,322
4.58,322
4.581,322
4.582,320
4.583,321
4.584,322
4.585,323
4.586,322
4.587,322
4.588,322
4.589,322
4.59,322
4.591,322
4.592,322
4.593,322
4.594,321
4.595,321
4.596,321
4.597,322
4.598,322
4.599,322
4.6,322
4.601,323
4.602,323
4.603,321
4.604,321
4.605,321
4.606,320
4.607,322
4.608,321
4.609,322
4.61,322
4.611,322
4.612,322
4.613,321
4.614,322
4.615,321
4.616,322
4.617,321
4.618,322
4.619,323
4.62,323
4.621,322
4.622,323
4.623,323
4.624,322
4.625,323
4.626,321
4.627,321
4.628,321
4.629,321
4.63,321
4.631,321
4.632,322
4.633,321
4.634,321
4.635,321
4.636,322
4.637,322
4.638,321
4.639,321
4.64,321
4.641,322
4.642,322
4.643,322
4.644,323
4.645,323
4.646,322
4.647,321
4.648,321
4.649,321
4.65,321
4.651,321
4.652,321
4.653,321
4.654,321
4.655,322
4.656,321
4.657,323
4.658,322
4.659,322
4.66,322
4.661,324
4.662,324
4.663,323
4.664,321
4.665,322
4.666,322
4.667,323
4.668,323
4.669,323
4.67,322
4.671,323
4.672,322
4.673,323
4.674,323
4.675,322
4.676,322
4.677,323
4.678,322
4.679,322
4.68,322
4.681,322
4.682,322
4.683,322
4.684,320
4.685,321
4.686,321
4.687,321
4.688,320
4.689,320
4.69,321
4.691,322
4.692,322
4.693,322
4.694,322
4.695,323
4.696,322
4.697,323
4.698,322
4.699,323
4.7,322
4.701,323
4.702,323
4.703,323
4.704,321
4.705,321
4.706,322
4.707,323
4.708,323
4.709,322
4.71,322
4.711,322
4.712,323
4.713,322
4.714,322
4.715,322
4.716,323
4.717,322
4.718,323
4.719,322
4.72,322
4.721,322
4.722,322
4.723,322
4.724,323
4.725,322
4.726,322
4.727,323
4.728,320
4.729,321
4.73,320
4.731,321
4.732,321
4.733,320
4.734,321
4.735,322
4.736,321
4.737,321
4.738,323
4.739,323
4.74,323
4.741,322
4.742,323
4.743,322
4.744,321
4.745,321
4.746,320
4.747,321
4.748,321
4.749,321
4.75,321
4.751,321
4.752,320
4.753,321
4.754,321
4.755,320
4.756,321
4.757,321
4.758,320
4.759,320
4.76,321
4.761,320
4.762,322
4.763,324
4.764,324
4.765,324
4.766,323
4.767,322
4.768,322
4.769,323
4.77,323
4.771,322
4.772,322
4.773,323
4.774,324
4.775,323
4.776,324
4.777,324
4.778,324
4.779,323
4.78,324
4.781,324
4.782,323
4.783,324
4.784,323
4.785,323
4.786,323
4.787,322
4.788,323
4.789,322
4.79,322
4.791,321
4.792,322
4.793,321
4.794,321
4.795,321
4.796,321
4.797,321
4.798,321
4.799,321
4.8,322
4.801,322
4.802,320
4.803,321
4.804,322
4.805,323
4.806,322
4.807,321
4.808,322
4.809,322
4.81,322
4.811,321
4.812,321
4.813,321
4.814,321
4.815,321
4.816,320
4.817,320
4.818,322
4.819,322
4.82,321
4.821,322
4.822,321
4.823,322
4.824,322
4.825,322
4.826,322
4.827,323
4.828,323
4.829,322
4.83,323
4.831,322
4.832,322
4.833,322
4.834,321
4.835,321
4.836,322
4.837,321
4.838,322
4.839,323
4.84,323
4.841,323
4.842,323
4.843,321
4.844,322
4.845,323
4.846,323
4.847,320
4.848,320
4.849,322
4.85,321
4.851,322
4.852,322
4.853,323
4.854,322
4.855,321
4.856,321
4.857,321
4.858,321
4.859,321
4.86,321
4.861,320
4.862,320
4.863,321
4.864,321
4.865,322
4.866,323
4.867,323
4.868,322
4.869,323
4.87,322
4.871,321
4.872,320
4.873,321
4.874,322
4.875,321
4.876,322
4.877,322
4.878,323
4.879,323
4.88,322
4.881,323
4.882,322
4.883,322
4.884,322
4.885,321
4.886,322
4.887,323
4.888,322
4.889,322
4.89,322
4.891,322
4.892,323
4.893,322
4.894,322
4.895,322
4.896,321
4.897,321
4.898,322
4.899,321
4.9,321
4.901,322
4.902,321
4.903,322
4.904,321
4.905,321
4.906,321
4.907,321
4.908,321
4.909,323
4.91,322
4.911,323
4.912,321
4.913,322
4.914,322
4.915,323
4.916,322
4.917,323
4.918,322
4.919,324
4.92,322
4.921,322
4.922,322
4.923,323
4.924,321
4.925,322
4.926,323
4.927,323
4.928,322
4.929,322
4.93,321
4.931,321
4.932,322
4.933,321
4.934,321
4.935,322
4.936,322
4.937,323
4.938,322
4.939,322
4.94,320
4.941,322
4.942,322
4.943,321
4.944,323
4.945,322
4.946,323
4.947,322
4.948,323
4.949,321
4.95,322
4.951,321
4.952,321
4.953,321
4.954,322
4.955,321
4.956,321
4.957,322
4.958,323
4.959,322
4.96,323
4.961,322
4.962,322
4.963,322
4.964,322
4.965,322
4.966,323
4.967,322
4.968,322
4.969,323
4.97,324
4.971,322
4.972,323
4.973,322
4.974,322
4.975,320
4.976,320
4.977,321
4.978,321
4.979,322
4.98,321
4.981,321
4.982,321
4.983,321
4.984,321
4.985,321
4.986,321
4.987,322
4.988,323
4.989,322
4.99,320
4.991,322
4.992,322
4.993,322
4.994,321
4.995,322
4.996,321
4.997,321
4.998,321
4.999,323
5,322
5.001,322
5.002,322
5.003,322
5.004,322
5.005,323
5.006,322
5.007,322
5.008,322
5.009,322
5.01,322
5.011,323
5.012,322
5.013,323
5.014,322
5.015,322
5.016,323
5.017,323
5.018,323
5.019,322
5.02,323
5.021,323
5.022,322
5.023,323
5.024,322
5.025,322
5.026,321
5.027,322
5.028,321
5.029,322
5.03,321
5.031,319
5.032,320
5.033,321
5.034,322
5.035,321
5.036,321
5.037,322
5.038,322
5.039,321
5.04,322
5.041,321
5.042,323
5.043,322
5.044,323
5.045,323
5.046,322
5.047,322
5.048,322
5.049,323
5.05,322
5.051,321
5.052,322
5.053,322
5.054,322
5.055,320
5.056,321
5.057,322
5.058,322
5.059,322
5.06,320
5.061,321
5.062,321
5.063,322
5.064,322
5.065,321
5.066,322
5.067,322
5.068,323
5.069,321
5.07,321
5.071,322
5.072,320
5.073,322
5.074,321
5.075,322
5.076,321
5.077,322
5.078,323
5.079,321
5.08,322
5.081,322
5.082,322
5.083,322
5.084,323
5.085,323
5.086,322
5.087,321
5.088,322
5.089,322
5.09,320
5.091,320
5.092,321
5.093,321
5.094,322
5.095,323
5.096,322
5.097,323
5.098,322
5.099,322
5.1,321
5.101,322
5.102,322
5.103,323
5.104,321
5.105,321
5.106,322
5.107,321
5.108,323
5.109,322
5.11,322
5.111,322
5.112,322
5.113,322
5.114,322
5.115,323
5.116,321
5.117,321
5.118,321
5.119,322
5.12,322
5.121,323
5.122,322
5.123,322
5.124,322
5.125,322
5.126,322
5.127,324
5.128,322
5.129,322
5.13,321
5.131,320
5.132,321
5.133,320
5.134,321
5.135,321
5.136,322
5.137,322
5.138,321
5.139,321
5.14,322
5.141,322
5.142,321
5.143,321
5.144,323
5.145,322
5.146,321
5.147,322
5.148,322
5.149,322
5.15,322
5.151,323
5.152,323
5.153,323
5.154,322
5.155,322
5.156,322
5.157,322
5.158,323
5.159,322
5.16,322
5.161,322
5.162,322
5.163,322
5.164,321
5.165,322
5.166,322
5.167,322
5.168,321
5.169,322
5.17,323
5.171,323
5.172,322
5.173,322
5.174,322
5.175,321
5.176,322
5.177,323
5.178,322
5.179,323
5.18,322
5.181,322
5.182,323
5.183,322
5.184,322
5.185,322
5.186,321
5.187,321
5.188,322
5.189,323
5.19,322
5.191,322
5.192,321
5.193,323
5.194,322
5.195,321
5.196,322
5.197,322
5.198,323
5.199,323
5.2,322
5.201,322
5.202,323
5.203,322
5.204,322
5.205,322
5.206,322
5.207,323
5.208,323
5.209,323
5.21,322
5.211,323
5.212,322
5.213,323
5.214,322
5.215,321
5.216,322
5.217,321
5.218,320
5.219,320
5.22,321
5.221,322
5.222,321
5.223,320
5.224,321
5.225,321
5.226,322
5.227,323
5.228,322
5.229,322
5.23,322
5.231,321
5.232,322
5.233,322
5.234,323
5.235,322
5.236,323
5.237,322
5.238,323
5.239,323
5.24,322
5.241,322
5.242,322
5.243,320
5.244,321
5.245,321
5.246,323
5.247,322
5.248,322
5.249,322
5.25,323
5.251,322
5.252,322
5.253,322
5.254,323
5.255,322
5.256,322
5.257,321
5.258,320
5.259,321
5.26,322
5.261,322
5.262,322
5.263,323
5.264,322
5.265,322
5.266,322
5.267,321
5.268,321
5.269,321
5.27,322
5.271,322
5.272,322
5.273,322
5.274,322
5.275,322
5.276,321
5.277,320
5.278,320
5.279,321
5.28,321
5.281,322
5.282,322
5.283,324
5.284,323
5.285,322
5.286,321
5.287,322
5.288,322
5.289,321
5.29,323
5.291,323
5.292,322
5.293,323
5.294,323
5.295,322
5.296,323
5.297,322
5.298,322
5.299,323
5.3,321
5.301,322
5.302,322
5.303,322
5.304,322
5.305,322
5.306,322
5.307,323
5.308,322
5.309,323
5.31,322
5.311,321
5.312,321
5.313,321
5.314,323
5.315,322
5.316,322
5.317,322
5.318,322
5.319,323
5.32,321
5.321,321
5.322,322
5.323,321
5.324,320
5.325,322
5.326,322
5.327,322
5.328,321
5.329,321
5.33,323
5.331,323
5.332,322
5.333,322
5.334,322
5.335,323
5.336,322
5.337,323
5.338,323
5.339,323
5.34,323
5.341,323
5.342,323
5.343,323
5.344,323
5.345,323
5.346,323
5.347,323
5.348,323
5.349,321
5.35,320
5.351,321
5.352,321
5.353,322
5.354,322
5.355,322
5.356,321
5.357,322
5.358,322
5.359,323
5.36,323
5.361,322
5.362,322
5.363,322
5.364,322
5.365,322
5.366,321
5.367,322
5.368,321
5.369,321
5.37,322
5.371,321
5.372,322
5.373,324
5.374,322
5.375,322
5.376,322
5.377,323
5.378,323
5.379,323
5.38,323
5.381,321
5.382,320
5.383,321
5.384,320
5.385,320
5.386,320
5.387,321
5.388,320
5.389,323
5.39,322
5.391,321
5.392,320
5.393,322
5.394,321
5.395,321
5.396,320
5.397,322
5.398,322
5.399,322
5.4,322
5.401,323
5.402,322
5.403,322
5.404,322
5.405,322
5.406,323
5.407,322
5.408,323
5.409,322
5.41,323
5.411,322
5.412,322
5.413,323
5.414,323
5.415,325
5.416,324
5.417,325
5.418,323
5.419,324
5.42,324
5.421,323
5.422,323
5.423,322
5.424,321
5.425,321
5.426,321
5.427,323
5.428,323
5.429,322
5.43,322
5.431,322
5.432,322
5.433,321
5.434,321
5.435,321
5.436,321
5.437,322
5.438,321
5.439,321
5.44,321
5.441,321
5.442,322
5.443,322
5.444,321
5.445,322
5.446,322
5.447,322
5.448,321
5.449,321
5.45,322
5.451,322
5.452,322
5.453,321
5.454,322
5.455,322
5.456,322
5.457,322
5.458,322
5.459,322
5.46,321
5.461,322
5.462,322
5.463,322
5.464,322
5.465,323
5.466,322
5.467,323
5.468,321
5.469,321
5.47,320
5.471,322
5.472,323
5.473,321
5.474,322
5.475,322
5.476,321
5.477,321
5.478,323
5.479,323
5.48,323
5.481,322
5.482,322
5.483,321
5.484,322
5.485,323
5.486,322
5.487,323
5.488,323
5.489,322
5.49,322
5.491,323
5.492,322
5.493,323
5.494,322
5.495,322
5.496,320
5.497,321
5.498,321
5.499,321
5.5,322
5.501,322
5.502,321
5.503,321
5.504,321
5.505,320
5.506,321
5.507,321
5.508,322
5.509,322
5.51,322
5.511,322
5.512,321
5.513,322
5.514,321
5.515,322
5.516,323
5.517,323
5.518,322
5.519,322
5.52,322
5.521,322
5.522,322
5.523,321
5.524,321
5.525,322
5.526,322
5.527,323
5.528,322
5.529,322
5.53,322
5.531,322
5.532,322
5.533,322
5.534,323
5.535,322
5.536,322
5.537,322
5.538,323
5.539,323
5.54,323
5.541,322
5.542,322
5.543,322
5.544,322
5.545,322
5.546,321
5.547,323
5.548,321
5.549,322
5.55,322
5.551,322
5.552,322
5.553,322
5.554,322
5.555,322
5.556,322
5.557,322
5.558,322
5.559,323
5.56,322
5.561,323
5.562,321
5.563,321
5.564,321
5.565,323
5.566,322
5.567,323
5.568,323
5.569,323
5.57,322
5.571,323
5.572,322
5.573,322
5.574,323
5.575,322
5.576,323
5.577,323
5.578,322
5.579,322
5.58,322
5.581,324
5.582,322
5.583,321
5.584,321
5.585,322
5.586,323
5.587,322
5.588,322
5.589,323
5.59,322
5.591,322
5.592,322
5.593,322
5.594,323
5.595,322
5.596,321
5.597,321
5.598,322
5.599,322
5.6,322
5.601,323
5.602,322
5.603,323
5.604,321
5.605,321
5.606,323
5.607,323
5.608,322
5.609,321
5.61,322
5.611,322
5.612,321
5.613,321
5.614,322
5.615,323
5.616,322
5.617,323
5.618,322
5.619,321
5.62,321
5.621,322
5.622,322
5.623,321
5.624,322
5.625,322
5.626,322
5.627,323
5.628,322
5.629,322
5.63,321
5.631,323
5.632,322
5.633,323
5.634,322
5.635,323
5.636,322
5.637,323
5.638,323
5.639,322
5.64,323
5.641,322
5.642,321
5.643,322
5.644,323
5.645,322
5.646,323
5.647,323
5.648,322
5.649,322
5.65,322
5.651,322
5.652,322
5.653,322
5.654,321
5.655,321
5.656,321
5.657,321
5.658,322
5.659,324
5.66,322
5.661,321
5.662,323
5.663,323
5.664,322
5.665,320
5.666,321
5.667,320
5.668,320
5.669,320
5.67,321
5.671,322
5.672,322
5.673,322
5.674,321
5.675,322
5.676,322
5.677,322
5.678,322
5.679,321
5.68,322
5.681,323
5.682,321
5.683,322
5.684,323
5.685,322
5.686,322
5.687,320
5.688,321
5.689,321
5.69,320
5.691,320
5.692,322
5.693,322
5.694,322
5.695,322
5.696,322
5.697,322
5.698,323
5.699,322
5.7,322
5.701,322
5.702,323
5.703,322
5.704,323
5.705,323
5.706,322
5.707,323
5.708,322
5.709,322
5.71,323
5.711,321
5.712,320
5.713,321
5.714,321
5.715,323
5.716,322
5.717,322
5.718,322
5.719,322
5.72,321
5.721,321
5.722,320
5.723,321
5.724,321
5.725,322
5.726,322
5.727,320
5.728,322
5.729,323
5.73,322
5.731,322
5.732,321
5.733,321
5.734,323
5.735,322
5.736,322
5.737,322
5.738,323
5.739,322
5.74,323
5.741,324
5.742,323
5.743,322
5.744,322
5.745,321
5.746,321
5.747,322
5.748,321
5.749,322
5.75,322
5.751,321
5.752,322
5.753,322
5.754,322
5.755,322
5.756,322
5.757,323
5.758,322
5.759,323
5.76,322
5.761,322
5.762,323
5.763,322
5.764,322
5.765,322
5.766,322
5.767,322
5.768,322
5.769,321
5.77,321
5.771,321
5.772,322
5.773,321
5.774,321
5.775,321
5.776,321
5.777,322
5.778,322
5.779,322
5.78,323
5.781,322
5.782,322
5.783,321
5.784,323
5.785,322
5.786,322
5.787,323
5.788,323
5.789,322
5.79,322
5.791,323
5.792,322
5.793,321
5.794,322
5.795,320
5.796,321
5.797,322
5.798,321
5.799,320
5.8,322
5.801,322
5.802,322
5.803,321
5.804,322
5.805,323
5.806,322
5.807,323
5.808,323
5.809,323
5.81,323
5.811,322
5.812,324
5.813,322
5.814,322
5.815,323
5.816,322
5.817,321
5.818,321
5.819,323
5.82,321
5.821,321
5.822,322
5.823,322
5.824,322
5.825,322
5.826,322
5.827,323
5.828,322
5.829,322
5.83,322
5.831,322
5.832,321
5.833,322
5.834,322
5.835,322
5.836,323
5.837,322
5.838,322
5.839,323
5.84,322
5.841,322
5.842,321
5.843,322
5.844,320
5.845,322
5.846,322
5.847,323
5.848,322
5.849,322
5.85,323
5.851,322
5.852,321
5.853,322
5.854,322
5.855,321
5.856,322
5.857,322
5.858,323
5.859,322
5.86,322
5.861,322
5.862,321
5.863,320
5.864,321
5.865,320
5.866,322
5.867,322
5.868,322
5.869,322
5.87,321
5.871,322
5.872,322
5.873,322
5.874,323
5.875,322
5.876,323
5.877,322
5.878,323
5.879,322
5.88,322
5.881,322
5.882,323
5.883,322
5.884,322
5.885,322
5.886,322
5.887,321
5.888,322
5.889,321
5.89,320
5.891,321
5.892,320
5.893,322
5.894,322
5.895,321
5.896,322
5.897,322
5.898,322
5.899,320
5.9,321
5.901,320
5.902,321
5.903,322
5.904,323
5.905,321
5.906,322
5.907,323
5.908,322
5.909,322
5.91,322
5.911,321
5.912,322
5.913,321
5.914,323
5.915,322
5.916,322
5.917,322
5.918,323
5.919,322
5.92,322
5.921,321
5.922,321
5.923,322
5.924,322
5.925,322
5.926,322
5.927,323
5.928,322
5.929,323
5.93,322
5.931,323
5.932,322
5.933,323
5.934,322
5.935,324
5.936,322
5.937,323
5.938,322
5.939,322
5.94,323
5.941,323
5.942,322
5.943,323
5.944,323
5.945,323
5.946,322
5.947,323
5.948,322
5.949,321
5.95,322
5.951,320
5.952,320
5.953,320
5.954,322
5.955,322
5.956,322
5.957,322
5.958,322
5.959,322
5.96,322
5.961,321
5.962,321
5.963,321
5.964,321
5.965,321
5.966,321
5.967,321
5.968,322
5.969,323
5.97,322
5.971,322
5.972,322
5.973,322
5.974,322
5.975,321
5.976,322
5.977,322
5.978,322
5.979,322
5.98,322
5.981,322
5.982,324
5.983,323
5.984,323
5.985,322
5.986,322
5.987,323
5.988,322
5.989,323
5.99,323
5.991,322
5.992,322
5.993,322
5.994,321
5.995,323
5.996,321
5.997,321
5.998,321
5.999,321
6,321
6.001,322
6.002,321
6.003,322
6.004,323
6.005,322
6.006,322
6.007,322
6.008,321
6.009,321
6.01,322
6.011,321
6.012,323
6.013,322
6.014,322
6.015,323
6.016,321
6.017,321
6.018,320
6.019,323
6.02,321
6.021,320
6.022,321
6.023,320
6.024,321
6.025,321
6.026,321
6.027,320
6.028,320
6.029,322
6.03,321
6.031,321
6.032,320
6.033,322
6.034,322
6.035,321
6.036,323
6.037,322
6.038,322
6.039,323
6.04,325
6.041,325
6.042,324
6.043,323
6.044,323
6.045,324
6.046,324
6.047,324
6.048,324
6.049,325
6.05,324
6.051,324
6.052,325
6.053,324
6.054,323
6.055,322
6.056,322
6.057,323
6.058,322
6.059,320
6.06,321
6.061,321
6.062,321
6.063,322
6.064,322
6.065,322
6.066,322
6.067,322
6.068,321
6.069,322
6.07,322
6.071,322
6.072,321
6.073,321
6.074,322
6.075,321
6.076,321
6.077,321
6.078,321
6.079,322
6.08,322
6.081,321
6.082,322
6.083,321
6.084,322
6.085,321
6.086,320
6.087,321
6.088,320
6.089,322
6.09,321
6.091,321
6.092,322
6.093,322
6.094,323
6.095,322
6.096,322
6.097,323
6.098,322
6.099,321
6.1,321
6.101,322
6.102,322
6.103,322
6.104,322
6.105,322
6.106,324
6.107,322
6.108,322
6.109,324
6.11,322
6.111,322
6.112,322
6.113,323
6.114,322
6.115,323
6.116,322
6.117,322
6.118,322
6.119,321
6.12,320
6.121,323
6.122,321
6.123,322
6.124,321
6.125,321
6.126,321
6.127,321
6.128,321
6.129,322
6.13,322
6.131,323
6.132,322
6.133,322
6.134,322
6.135,322
6.136,322
6.137,323
6.138,322
6.139,322
6.14,323
6.141,322
6.142,322
6.143,322
6.144,322
6.145,323
6.146,322
6.147,321
6.148,321
6.149,322
6.15,322
6.151,322
6.152,322
6.153,322
6.154,321
6.155,321
6.156,320
6.157,321
6.158,322
6.159,322
6.16,323
6.161,322
6.162,322
6.163,322
6.164,323
6.165,323
6.166,322
6.167,322
6.168,321
6.169,322
6.17,323
6.171,322
6.172,322
6.173,322
6.174,322
6.175,324
6.176,322
6.177,321
6.178,322
6.179,322
6.18,321
6.181,322
6.182,323
6.183,323
6.184,322
6.185,322
6.186,322
6.187,322
6.188,322
6.189,322
6.19,321
6.191,323
6.192,322
6.193,323
6.194,323
6.195,322
6.196,322
6.197,322
6.198,322
6.199,322
6.2,322
6.201,323
6.202,322
6.203,323
6.204,322
6.205,322
6.206,322
6.207,322
6.208,323
6.209,323
6.21,322
6.211,323
6.212,323
6.213,323
6.214,321
6.215,321
6.216,320
6.217,322
6.218,322
6.219,322
6.22,323
6.221,321
6.222,322
6.223,323
6.224,321
6.225,322
6.226,322
6.227,322
6.228,322
6.229,321
6.23,321
6.231,323
6.232,321
6.233,322
6.234,323
6.235,324
6.236,323
6.237,322
6.238,322
6.239,322
6.24,322
6.241,321
6.242,322
6.243,323
6.244,322
6.245,323
6.246,322
6.247,322
6.248,323
6.249,322
6.25,322
6.251,322
6.252,322
6.253,321
6.254,323
6.255,322
6.256,321
6.257,323
6.258,322
6.259,323
6.26,322
6.261,321
6.262,322
6.263,322
6.264,321
6.265,322
6.266,322
6.267,322
6.268,322
6.269,322
6.27,322
6.271,322
6.272,322
6.273,323
6.274,323
6.275,322
6.276,322
6.277,323
6.278,322
6.279,323
6.28,322
6.281,322
6.282,322
6.283,322
6.284,322
6.285,323
6.286,322
6.287,321
6.288,321
6.289,322
6.29,322
6.291,322
6.292,323
6.293,322
6.294,321
6.295,321
6.296,321
6.297,322
6.298,321
6.299,322
6.3,322
6.301,322
6.302,321
6.303,322
6.304,323
6.305,322
6.306,322
6.307,323
6.308,321
6.309,321
6.31,321
6.311,321
6.312,321
6.313,321
6.314,322
6.315,322
6.316,322
6.317,322
6.318,321
6.319,321
6.32,320
6.321,321
6.322,321
6.323,321
6.324,321
6.325,322
6.326,322
6.327,322
6.328,323
6.329,322
6.33,322
6.331,322
6.332,322
6.333,322
6.334,321
6.335,321
6.336,322
6.337,321
6.338,322
6.339,322
6.34,321
6.341,321
6.342,322
6.343,321
6.344,321
6.345,322
6.346,322
6.347,322
6.348,320
6.349,321
6.35,322
6.351,321
6.352,321
6.353,321
6.354,321
6.355,321
6.356,321
6.357,322
6.358,323
6.359,322
6.36,322
6.361,321
6.362,320
6.363,322
6.364,323
6.365,321
6.366,322
6.367,323
6.368,322
6.369,322
6.37,322
6.371,323
6.372,321
6.373,321
6.374,322
6.375,321
6.376,322
6.377,321
6.378,322
6.379,322
6.38,321
6.381,322
6.382,322
6.383,322
6.384,321
6.385,321
6.386,321
6.387,322
6.388,321
6.389,322
6.39,322
6.391,324
6.392,323
6.393,322
6.394,322
6.395,322
6.396,322
6.397,323
6.398,322
6.399,323
6.4,323
6.401,322
6.402,322
6.403,323
6.404,322
6.405,321
6.406,322
6.407,321
6.408,321
6.409,322
6.41,321
6.411,321
6.412,322
6.413,321
6.414,321
6.415,322
6.416,322
6.417,323
6.418,322
6.419,322
6.42,323
6.421,322
6.422,321
6.423,322
6.424,322
6.425,322
6.426,322
6.427,322
6.428,322
6.429,322
6.43,321
6.431,321
6.432,321
6.433,322
6.434,321
6.435,321
6.436,323
6.437,321
6.438,322
6.439,323
6.44,322
6.441,322
6.442,323
6.443,323
6.444,323
6.445,322
6.446,321
6.447,322
6.448,322
6.449,324
6.45,322
6.451,322
6.452,322
6.453,322
6.454,322
6.455,321
6.456,322
6.457,322
6.458,320
6.459,321
6.46,320
6.461,320
6.462,322
6.463,322
6.464,322
6.465,323
6.466,323
6.467,322
6.468,323
6.469,324
6.47,322
6.471,323
6.472,322
6.473,322
6.474,323
6.475,322
6.476,322
6.477,323
6.478,322
6.479,322
6.48,323
6.481,323
6.482,322
6.483,321
6.484,322
6.485,323
6.486,323
6.487,321
6.488,321
6.489,322
6.49,322
6.491,322
6.492,323
6.493,321
6.494,322
6.495,322
6.496,323
6.497,323
6.498,322
6.499,321
6.5,320
6.501,320
6.502,321
6.503,321
6.504,322
6.505,321
6.506,322
6.507,322
6.508,322
6.509,321
6.51,322
6.511,322
6.512,321
6.513,322
6.514,322
6.515,321
6.516,321
6.517,322
6.518,322
6.519,321
6.52,321
6.521,321
6.522,321
6.523,321
6.524,323
6.525,322
6.526,322
6.527,321
6.528,321
6.529,320
6.53,321
6.531,322
6.532,322
6.533,322
6.534,322
6.535,322
6.536,322
6.537,321
6.538,321
6.539,323
6.54,323
6.541,322
6.542,322
6.543,323
6.544,322
6.545,323
6.546,322
6.547,322
6.548,322
6.549,323
6.55,323
6.551,323
6.552,322
6.553,323
6.554,322
6.555,323
6.556,323
6.557,324
6.558,322
6.559,324
6.56,322
6.561,321
6.562,321
6.563,321
6.564,321
6.565,323
6.566,322
6.567,323
6.568,322
6.569,322
6.57,322
6.571,323
6.572,321
6.573,322
6.574,322
6.575,322
6.576,321
6.577,323
6.578,322
6.579,321
6.58,321
6.581,321
6.582,322
6.583,322
6.584,322
6.585,321
6.586,322
6.587,322
6.588,322
6.589,322
6.59,321
6.591,322
6.592,321
6.593,322
6.594,322
6.595,322
6.596,323
6.597,323
6.598,322
6.599,322
6.6,322
6.601,321
6.602,323
6.603,322
6.604,322
6.605,322
6.606,323
6.607,322
6.608,322
6.609,322
6.61,323
6.611,322
6.612,322
6.613,322
6.614,322
6.615,321
6.616,322
6.617,321
6.618,321
6.619,321
6.62,322
6.621,322
6.622,323
6.623,322
6.624,322
6.625,322
6.626,322
6.627,322
6.628,322
6.629,323
6.63,323
6.631,323
6.632,323
6.633,322
6.634,321
6.635,321
6.636,322
6.637,323
6.638,323
6.639,321
6.64,322
6.641,321
6.642,321
6.643,321
6.644,322
6.645,321
6.646,321
6.647,321
6.648,321
6.649,320
6.65,320
6.651,321
6.652,322
6.653,321
6.654,322
6.655,320
6.656,322
6.657,321
6.658,321
6.659,323
6.66,323
6.661,322
6.662,322
6.663,323
6.664,322
6.665,323
6.666,323
6.667,324
6.668,323
6.669,324
6.67,323
6.671,323
6.672,324
6.673,323
6.674,323
6.675,324
6.676,324
6.677,323
6.678,324
6.679,323
6.68,324
6.681,322
6.682,323
6.683,323
6.684,323
6.685,322
6.686,322
6.687,322
6.688,322
6.689,321
6.69,321
6.691,320
6.692,320
6.693,321
6.694,322
6.695,322
6.696,321
6.697,321
6.698,320
6.699,321
6.7,321
6.701,321
6.702,321
6.703,320
6.704,322
6.705,322
6.706,322
6.707,322
6.708,321
6.709,322
6.71,323
6.711,321
6.712,322
6.713,321
6.714,322
6.715,322
6.716,322
6.717,323
6.718,322
6.719,322
6.72,321
6.721,323
6.722,322
6.723,322
6.724,322
6.725,322
6.726,321
6.727,322
6.728,322
6.729,322
6.73,322
6.731,321
6.732,321
6.733,321
6.734,321
6.735,323
6.736,323
6.737,321
6.738,322
6.739,321
6.74,321
6.741,321
6.742,321
6.743,321
6.744,321
6.745,323
6.746,322
6.747,322
6.748,323
6.749,322
6.75,323
6.751,322
6.752,322
6.753,322
6.754,321
6.755,323
6.756,323
6.757,322
6.758,322
6.759,322
6.76,322
6.761,323
6.762,322
6.763,321
6.764,321
6.765,322
6.766,322
6.767,322
6.768,321
6.769,320
6.77,321
6.771,322
6.772,323
6.773,322
6.774,323
6.775,322
6.776,322
6.777,322
6.778,323
6.779,321
6.78,322
6.781,322
6.782,322
6.783,322
6.784,321
6.785,322
6.786,322
6.787,321
6.788,322
6.789,321
6.79,321
6.791,322
6.792,321
6.793,322
6.794,321
6.795,322
6.796,323
6.797,322
6.798,322
6.799,322
6.8,322
6.801,322
6.802,323
6.803,322
6.804,323
6.805,323
6.806,322
6.807,323
6.808,322
6.809,322
6.81,321
6.811,321
6.812,322
6.813,322
6.814,322
6.815,322
6.816,322
6.817,321
6.818,321
6.819,322
6.82,321
6.821,322
6.822,322
6.823,322
6.824,323
6.825,322
6.826,321
6.827,322
6.828,322
6.829,322
6.83,321
6.831,321
6.832,321
6.833,323
6.834,323
6.835,322
6.836,322
6.837,322
6.838,322
6.839,322
6.84,322
6.841,323
6.842,322
6.843,322
6.844,322
6.845,322
6.846,322
6.847,322
6.848,323
6.849,323
6.85,322
6.851,321
6.852,321
6.853,322
6.854,322
6.855,322
6.856,323
6.857,322
6.858,323
6.859,322
6.86,322
6.861,322
6.862,323
6.863,322
6.864,323
6.865,322
6.866,322
6.867,322
6.868,322
6.869,321
6.87,321
6.871,321
6.872,322
6.873,322
6.874,322
6.875,323
6.876,322
6.877,322
6.878,323
6.879,321
6.88,321
6.881,321
6.882,321
6.883,322
6.884,321
6.885,323
6.886,322
6.887,322
6.888,322
6.889,322
6.89,323
6.891,321
6.892,322
6.893,322
6.894,323
6.895,322
6.896,322
6.897,323
6.898,322
6.899,322
6.9,323
6.901,323
6.902,321
6.903,322
6.904,322
6.905,322
6.906,323
6.907,322
6.908,322
6.909,322
6.91,322
6.911,322
6.912,322
6.913,323
6.914,322
6.915,322
6.916,323
6.917,321
6.918,322
6.919,323
6.92,322
6.921,320
6.922,320
6.923,324
6.924,322
6.925,321
6.926,322
6.927,321
6.928,321
6.929,321
6.93,322
6.931,322
6.932,321
6.933,322
6.934,322
6.935,323
6.936,322
6.937,322
6.938,322
6.939,322
6.94,321
6.941,321
6.942,321
6.943,321
6.944,322
6.945,322
6.946,322
6.947,321
6.948,322
6.949,322
6.95,322
6.951,321
6.952,322
6.953,322
6.954,322
6.955,321
6.956,321
6.957,320
6.958,322
6.959,322
6.96,321
6.961,321
6.962,322
6.963,322
6.964,321
6.965,322
6.966,321
6.967,322
6.968,320
6.969,322
6.97,322
6.971,322
6.972,322
6.973,322
6.974,321
6.975,322
6.976,322
6.977,322
6.978,321
6.979,321
6.98,321
6.981,322
6.982,321
6.983,321
6.984,320
6.985,320
6.986,321
6.987,322
6.988,322
6.989,321
6.99,323
6.991,323
6.992,322
6.993,323
6.994,322
6.995,322
6.996,322
6.997,322
6.998,323
6.999,322
7,323
7.001,322
7.002,323
7.003,322
7.004,321
7.005,321
7.006,322
7.007,322
7.008,322
7.009,324
7.01,321
7.011,321
7.012,320
7.013,320
7.014,322
7.015,322
7.016,323
7.017,323
7.018,321
7.019,322
7.02,322
7.021,322
7.022,322
7.023,322
7.024,321
7.025,322
7.026,322
7.027,322
7.028,322
7.029,324
7.03,321
7.031,322
7.032,321
7.033,323
7.034,322
7.035,323
7.036,322
7.037,322
7.038,322
7.039,321
7.04,321
7.041,322
7.042,323
7.043,322
7.044,322
7.045,322
7.046,322
7.047,322
7.048,322
7.049,323
7.05,322
7.051,321
7.052,322
7.053,322
7.054,321
7.055,322
7.056,322
7.057,323
7.058,323
7.059,322
7.06,322
7.061,321
7.062,322
7.063,322
7.064,322
7.065,322
7.066,322
7.067,322
7.068,322
7.069,322
7.07,322
7.071,322
7.072,322
7.073,322
7.074,322
7.075,322
7.076,322
7.077,322
7.078,323
7.079,322
7.08,322
7.081,323
7.082,322
7.083,322
7.084,322
7.085,321
7.086,321
7.087,321
7.088,322
7.089,322
7.09,322
7.091,323
7.092,322
7.093,322
7.094,321
7.095,322
7.096,321
7.097,322
7.098,322
7.099,322
7.1,322
7.101,322
7.102,322
7.103,321
7.104,321
7.105,322
7.106,322
7.107,322
7.108,321
7.109,321
7.11,322
7.111,322
7.112,321
7.113,322
7.114,321
7.115,322
7.116,323
7.117,322
7.118,322
7.119,322
7.12,322
7.121,322
7.122,321
7.123,322
7.124,322
7.125,322
7.126,322
7.127,321
7.128,323
7.129,323
7.13,322
7.131,322
7.132,322
7.133,322
7.134,321
7.135,321
7.136,322
7.137,322
7.138,322
7.139,322
7.14,321
7.141,322
7.142,323
7.143,322
7.144,323
7.145,322
7.146,322
7.147,321
7.148,321
7.149,321
7.15,322
7.151,322
7.152,322
7.153,322
7.154,321
7.155,322
7.156,321
7.157,322
7.158,321
7.159,322
7.16,322
7.161,321
7.162,322
7.163,323
7.164,321
7.165,321
7.166,322
7.167,321
7.168,322
7.169,322
7.17,322
7.171,323
7.172,322
7.173,322
7.174,322
7.175,322
7.176,321
7.177,323
7.178,322
7.179,321
7.18,321
7.181,322
7.182,322
7.183,321
7.184,321
7.185,323
7.186,323
7.187,321
7.188,321
7.189,320
7.19,321
7.191,322
7.192,323
7.193,324
7.194,322
7.195,322
7.196,323
7.197,323
7.198,322
7.199,321
7.2,322
7.201,323
7.202,323
7.203,323
7.204,322
7.205,323
7.206,321
7.207,321
7.208,321
7.209,322
7.21,323
7.211,323
7.212,322
7.213,322
7.214,322
7.215,322
7.216,323
7.217,322
7.218,322
7.219,322
7.22,323
7.221,322
7.222,322
7.223,321
7.224,323
7.225,322
7.226,321
7.227,321
7.228,322
7.229,322
7.23,322
7.231,322
7.232,322
7.233,323
7.234,322
7.235,322
7.236,322
7.237,323
7.238,322
7.239,321
7.24,322
7.241,321
7.242,322
7.243,322
7.244,323
7.245,322
7.246,323
7.247,322
7.248,322
7.249,321
7.25,322
7.251,322
7.252,322
7.253,322
7.254,321
7.255,322
7.256,323
7.257,322
7.258,321
7.259,322
7.26,322
7.261,321
7.262,321
7.263,322
7.264,323
7.265,322
7.266,322
7.267,323
7.268,322
7.269,322
7.27,322
7.271,321
7.272,321
7.273,321
7.274,322
7.275,323
7.276,322
7.277,322
7.278,322
7.279,321
7.28,322
7.281,321
7.282,321
7.283,322
7.284,321
7.285,322
7.286,322
7.287,322
7.288,321
7.289,321
7.29,320
7.291,322
7.292,320
7.293,321
7.294,321
7.295,321
7.296,320
7.297,321
7.298,322
7.299,324
7.3,321
7.301,322
7.302,322
7.303,322
7.304,324
7.305,322
7.306,324
7.307,323
7.308,324
7.309,323
7.31,324
7.311,323
7.312,323
7.313,324
7.314,323
7.315,324
7.316,323
7.317,323
7.318,323
7.319,323
7.32,323
7.321,322
7.322,323
7.323,322
7.324,322
7.325,322
7.326,322
7.327,321
7.328,320
7.329,321
7.33,322
7.331,322
7.332,321
7.333,321
7.334,321
7.335,320
7.336,321
7.337,322
7.338,322
7.339,321
7.34,322
7.341,322
7.342,323
7.343,321
7.344,322
7.345,322
7.346,322
7.347,322
7.348,322
7.349,320
7.35,321
7.351,321
7.352,320
7.353,322
7.354,322
7.355,322
7.356,320
7.357,320
7.358,322
7.359,322
7.36,321
7.361,322
7.362,322
7.363,321
7.364,321
7.365,321
7.366,322
7.367,321
7.368,321
7.369,321
7.37,321
7.371,322
7.372,322
7.373,321
7.374,321
7.375,320
7.376,321
7.377,322
7.378,322
7.379,322
7.38,322
7.381,323
7.382,323
7.383,322
7.384,322
7.385,324
7.386,322
7.387,323
7.388,322
7.389,322
7.39,322
7.391,323
7.392,322
7.393,322
7.394,321
7.395,321
7.396,322
7.397,322
7.398,322
7.399,321
7.4,320
7.401,321
7.402,321
7.403,320
7.404,322
7.405,321
7.406,322
7.407,324
7.408,322
7.409,322
7.41,322
7.411,323
7.412,322
7.413,322
7.414,323
7.415,322
7.416,322
7.417,322
7.418,322
7.419,323
7.42,322
7.421,323
7.422,322
7.423,320
7.424,321
7.425,322
7.426,322
7.427,322
7.428,322
7.429,322
7.43,322
7.431,322
7.432,323
7.433,322
7.434,322
7.435,322
7.436,323
7.437,322
7.438,322
7.439,321
7.44,322
7.441,322
7.442,322
7.443,321
7.444,321
7.445,321
7.446,321
7.447,321
7.448,321
7.449,321
7.45,321
7.451,323
7.452,323
7.453,322
7.454,322
7.455,322
7.456,321
7.457,322
7.458,322
7.459,321
7.46,322
7.461,321
7.462,321
7.463,322
7.464,322
7.465,322
7.466,322
7.467,323
7.468,322
7.469,322
7.47,322
7.471,322
7.472,322
7.473,322
7.474,321
7.475,322
7.476,322
7.477,322
7.478,322
7.479,323
7.48,322
7.481,322
7.482,323
7.483,323
7.484,322
7.485,321
7.486,320
7.487,321
7.488,322
7.489,322
7.49,323
7.491,321
7.492,322
7.493,322
7.494,321
7.495,322
7.496,322
7.497,323
7.498,324
7.499,322
7.5,322
7.501,322
7.502,321
7.503,322
7.504,323
7.505,322
7.506,322
7.507,322
7.508,322
7.509,321
7.51,321
7.511,321
7.512,323
7.513,322
7.514,322
7.515,322
7.516,323
7.517,322
7.518,322
7.519,322
7.52,322
7.521,322
7.522,321
7.523,321
7.524,321
7.525,322
7.526,322
7.527,322
7.528,322
7.529,323
7.53,321
7.531,322
7.532,322
7.533,322
7.534,322
7.535,323
7.536,322
7.537,323
7.538,322
7.539,322
7.54,322
7.541,322
7.542,321
7.543,322
7.544,322
7.545,323
7.546,322
7.547,322
7.548,322
7.549,323
7.55,322
7.551,322
7.552,322
7.553,321
7.554,322
7.555,322
7.556,322
7.557,322
7.558,321
7.559,321
7.56,321
7.561,322
7.562,321
7.563,321
7.564,321
7.565,323
7.566,321
7.567,323
7.568,322
7.569,321
7.57,322
7.571,322
7.572,322
7.573,321
7.574,321
7.575,322
7.576,322
7.577,322
7.578,322
7.579,321
7.58,321
7.581,322
7.582,321
7.583,322
7.584,322
7.585,321
7.586,321
7.587,321
7.588,322
7.589,320
7.59,323
7.591,322
7.592,321
7.593,322
7.594,321
7.595,322
7.596,322
7.597,321
7.598,321
7.599,322
7.6,321
7.601,321
7.602,320
7.603,323
7.604,322
7.605,322
7.606,321
7.607,322
7.608,322
7.609,321
7.61,321
7.611,322
7.612,322
7.613,322
7.614,322
7.615,321
7.616,320
7.617,320
7.618,321
7.619,323
7.62,322
7.621,323
7.622,323
7.623,322
7.624,322
7.625,322
7.626,321
7.627,321
7.628,322
7.629,323
7.63,322
7.631,323
7.632,322
7.633,322
7.634,322
7.635,322
7.636,322
7.637,322
7.638,322
7.639,322
7.64,322
7.641,321
7.642,322
7.643,323
7.644,322
7.645,322
7.646,322
7.647,323
7.648,322
7.649,321
7.65,322
7.651,323
7.652,321
7.653,321
7.654,322
7.655,323
7.656,321
7.657,321
7.658,322
7.659,322
7.66,322
7.661,321
7.662,322
7.663,323
7.664,323
7.665,321
7.666,322
7.667,321
7.668,322
7.669,321
7.67,322
7.671,321
7.672,321
7.673,322
7.674,321
7.675,321
7.676,322
7.677,322
7.678,321
7.679,320
7.68,322
7.681,322
7.682,321
7.683,322
7.684,323
7.685,322
7.686,322
7.687,322
7.688,322
7.689,321
7.69,322
7.691,322
7.692,322
7.693,323
7.694,322
7.695,322
7.696,321
7.697,322
7.698,321
7.699,322
7.7,322
7.701,322
7.702,322
7.703,322
7.704,322
7.705,322
7.706,322
7.707,322
7.708,322
7.709,323
7.71,322
7.711,322
7.712,322
7.713,322
7.714,323
7.715,322
7.716,322
7.717,322
7.718,322
7.719,322
7.72,321
7.721,322
7.722,322
7.723,322
7.724,322
7.725,322
7.726,323
7.727,323
7.728,322
7.729,322
7.73,322
7.731,322
7.732,321
7.733,323
7.734,322
7.735,322
7.736,322
7.737,322
7.738,322
7.739,322
7.74,322
7.741,322
7.742,322
7.743,322
7.744,321
7.745,323
7.746,322
7.747,322
7.748,322
7.749,322
7.75,321
7.751,322
7.752,322
7.753,323
7.754,322
7.755,322
7.756,322
7.757,323
7.758,322
7.759,322
7.76,322
7.761,322
7.762,321
7.763,322
7.764,322
7.765,323
7.766,322
7.767,321
7.768,322
7.769,322
7.77,322
7.771,322
7.772,322
7.773,321
7.774,322
7.775,321
7.776,321
7.777,322
7.778,321
7.779,321
7.78,321
7.781,321
7.782,322
7.783,321
7.784,322
7.785,322
7.786,322
7.787,322
7.788,322
7.789,321
7.79,321
7.791,322
7.792,323
7.793,322
7.794,322
7.795,322
7.796,322
7.797,322
7.798,322
7.799,321
7.8,321
7.801,321
7.802,321
7.803,323
7.804,322
7.805,321
7.806,322
7.807,322
7.808,322
7.809,322
7.81,321
7.811,320
7.812,321
7.813,321
7.814,321
7.815,322
7.816,321
7.817,322
7.818,321
7.819,322
7.82,323
7.821,321
7.822,321
7.823,322
7.824,321
7.825,322
7.826,322
7.827,322
7.828,322
7.829,322
7.83,322
7.831,321
7.832,321
7.833,322
7.834,322
7.835,322
7.836,322
7.837,322
7.838,323
7.839,323
7.84,323
7.841,323
7.842,322
7.843,321
7.844,322
7.845,321
7.846,322
7.847,322
7.848,322
7.849,322
7.85,322
7.851,323
7.852,322
7.853,322
7.854,322
7.855,322
7.856,321
7.857,322
7.858,322
7.859,322
7.86,323
7.861,322
7.862,322
7.863,323
7.864,323
7.865,322
7.866,323
7.867,322
7.868,322
7.869,322
7.87,322
7.871,322
7.872,321
7.873,322
7.874,322
7.875,322
7.876,321
7.877,322
7.878,322
7.879,322
7.88,322
7.881,322
7.882,322
7.883,321
7.884,322
7.885,322
7.886,322
7.887,322
7.888,322
7.889,321
7.89,322
7.891,322
7.892,321
7.893,321
7.894,322
7.895,322
7.896,322
7.897,323
7.898,322
7.899,322
7.9,322
7.901,322
7.902,323
7.903,322
7.904,322
7.905,323
7.906,322
7.907,322
7.908,322
7.909,322
7.91,322
7.911,322
7.912,322
7.913,322
7.914,323
7.915,322
7.916,321
7.917,322
7.918,321
7.919,321
7.92,322
7.921,322
7.922,320
7.923,321
7.924,321
7.925,322
7.926,321
7.927,320
7.928,320
7.929,321
7.93,321
7.931,321
7.932,322
7.933,321
7.934,322
7.935,322
7.936,321
7.937,322
7.938,322
7.939,322
7.94,322
7.941,322
7.942,322
7.943,322
7.944,324
7.945,323
7.946,322
7.947,324
7.948,323
7.949,324
7.95,325
7.951,323
7.952,324
7.953,324
7.954,323
7.955,322
7.956,323
7.957,322
7.958,323
7.959,323
7.96,322
7.961,322
7.962,322
7.963,321
7.964,323
7.965,322
7.966,322
7.967,322
7.968,321
7.969,321
7.97,321
7.971,322
7.972,322
7.973,321
7.974,322
7.975,321
7.976,321
7.977,322
7.978,323
7.979,322
7.98,322
7.981,321
7.982,321
7.983,321
7.984,321
7.985,321
7.986,321
7.987,321
7.988,321
7.989,322
7.99,321
7.991,322
7.992,321
7.993,321
7.994,322
7.995,321
7.996,322
7.997,321
7.998,322
7.999,322
8,321
8.001,322
8.002,321
8.003,322
8.004,322
8.005,322
8.006,321
8.007,322
8.008,321
8.009,322
8.01,323
8.011,322
8.012,321
8.013,322
8.014,322
8.015,322
8.016,322
8.017,322
8.018,321
8.019,322
8.02,321
8.021,321
8.022,322
8.023,322
8.024,321
8.025,321
8.026,322
8.027,322
8.028,322
8.029,322
8.03,322
8.031,321
8.032,321
8.033,322
8.034,321
8.035,321
8.036,323
8.037,323
8.038,322
8.039,322
8.04,322
8.041,323
8.042,322
8.043,321
8.044,322
8.045,322
8.046,322
8.047,322
8.048,322
8.049,323
8.05,322
8.051,322
8.052,322
8.053,322
8.054,322
8.055,323
8.056,322
8.057,322
8.058,323
8.059,323
8.06,322
8.061,322
8.062,322
8.063,322
8.064,322
8.065,322
8.066,322
8.067,322
8.068,322
8.069,321
8.07,321
8.071,321
8.072,322
8.073,322
8.074,322
8.075,322
8.076,323
8.077,322
8.078,322
8.079,322
8.08,322
8.081,322
8.082,322
8.083,322
8.084,322
8.085,323
8.086,322
8.087,322
8.088,322
8.089,322
8.09,322
8.091,322
8.092,322
8.093,323
8.094,321
8.095,321
8.096,322
8.097,323
8.098,322
8.099,322
8.1,322
8.101,322
8.102,321
8.103,322
8.104,322
8.105,321
8.106,321
8.107,322
8.108,322
8.109,323
8.11,322
8.111,322
8.112,322
8.113,322
8.114,322
8.115,322
8.116,322
8.117,321
8.118,322
8.119,322
8.12,323
8.121,323
8.122,323
8.123,321
8.124,323
8.125,322
8.126,322
8.127,322
8.128,322
8.129,322
8.13,322
8.131,322
8.132,320
8.133,321
8.134,322
8.135,321
8.136,322
8.137,323
8.138,321
8.139,323
8.14,323
8.141,321
8.142,322
8.143,321
8.144,321
8.145,321
8.146,322
8.147,322
8.148,323
8.149,323
8.15,322
8.151,322
8.152,321
8.153,321
8.154,321
8.155,322
8.156,322
8.157,321
8.158,322
8.159,322
8.16,323
8.161,322
8.162,321
8.163,322
8.164,321
8.165,323
8.166,321
8.167,322
8.168,321
8.169,321
8.17,322
8.171,321
8.172,322
8.173,322
8.174,322
8.175,321
8.176,322
8.177,322
8.178,322
8.179,322
8.18,322
8.181,321
8.182,321
8.183,322
8.184,322
8.185,322
8.186,322
8.187,322
8.188,323
8.189,322
8.19,323
8.191,323
8.192,322
8.193,323
8.194,322
8.195,322
8.196,322
8.197,322
8.198,322
8.199,323
8.2,322
8.201,321
8.202,322
8.203,321
8.204,320
8.205,321
8.206,320
8.207,322
8.208,320
8.209,322
8.21,322
8.211,322
8.212,321
8.213,322
8.214,321
8.215,322
8.216,322
8.217,322
8.218,321
8.219,322
8.22,322
8.221,322
8.222,321
8.223,322
8.224,322
8.225,322
8.226,322
8.227,322
8.228,322
8.229,322
8.23,322
8.231,321
8.232,322
8.233,322
8.234,322
8.235,321
8.236,323
8.237,322
8.238,322
8.239,323
8.24,323
8.241,321
8.242,322
8.243,322
8.244,320
8.245,321
8.246,323
8.247,322
8.248,322
8.249,322
8.25,322
8.251,322
8.252,322
8.253,322
8.254,322
8.255,322
8.256,322
8.257,321
8.258,322
8.259,323
8.26,322
8.261,323
8.262,322
8.263,322
8.264,323
8.265,322
8.266,323
8.267,323
8.268,322
8.269,322
8.27,322
8.271,322
8.272,323
8.273,323
8.274,323
8.275,323
8.276,322
8.277,322
8.278,322
8.279,323
8.28,321
8.281,322
8.282,322
8.283,322
8.284,321
8.285,323
8.286,323
8.287,321
8.288,322
8.289,322
8.29,322
8.291,323
8.292,322
8.293,322
8.294,323
8.295,323
8.296,322
8.297,322
8.298,321
8.299,322
8.3,322
8.301,322
8.302,322
8.303,322
8.304,323
8.305,323
8.306,322
8.307,322
8.308,323
8.309,322
8.31,322
8.311,322
8.312,322
8.313,321
8.314,321
8.315,321
8.316,322
8.317,321
8.318,322
8.319,322
8.32,322
8.321,322
8.322,321
8.323,321
8.324,323
8.325,322
8.326,322
8.327,322
8.328,322
8.329,322
8.33,321
8.331,321
8.332,321
8.333,322
8.334,323
8.335,321
8.336,321
8.337,321
8.338,321
8.339,322
8.34,321
8.341,321
8.342,322
8.343,322
8.344,322
8.345,323
8.346,322
8.347,321
8.348,322
8.349,321
8.35,321
8.351,322
8.352,322
8.353,321
8.354,322
8.355,321
8.356,322
8.357,323
8.358,323
8.359,324
8.36,323
8.361,321
8.362,322
8.363,323
8.364,323
8.365,322
8.366,321
8.367,321
8.368,323
8.369,322
8.37,322
8.371,323
8.372,322
8.373,322
8.374,322
8.375,323
8.376,321
8.377,322
8.378,322
8.379,322
8.38,322
8.381,322
8.382,321
8.383,322
8.384,322
8.385,321
8.386,323
8.387,322
8.388,322
8.389,323
8.39,322
8.391,322
8.392,321
8.393,322
8.394,322
8.395,323
8.396,321
8.397,323
8.398,322
8.399,321
8.4,322
8.401,323
8.402,321
8.403,322
8.404,323
8.405,323
8.406,322
8.407,322
8.408,322
8.409,322
8.41,322
8.411,323
8.412,323
8.413,323
8.414,322
8.415,323
8.416,322
8.417,323
8.418,322
8.419,322
8.42,321
8.421,322
8.422,322
8.423,322
8.424,322
8.425,322
8.426,322
8.427,322
8.428,323
8.429,322
8.43,322
8.431,322
8.432,322
8.433,321
8.434,321
8.435,322
8.436,322
8.437,322
8.438,322
8.439,322
8.44,323
8.441,322
8.442,321
8.443,322
8.444,322
8.445,322
8.446,322
8.447,321
8.448,321
8.449,322
8.45,322
8.451,322
8.452,322
8.453,322
8.454,322
8.455,322
8.456,322
8.457,322
8.458,322
8.459,322
8.46,323
8.461,322
8.462,322
8.463,321
8.464,322
8.465,323
8.466,322
8.467,322
8.468,321
8.469,321
8.47,321
8.471,321
8.472,321
8.473,322
8.474,322
8.475,322
8.476,321
8.477,323
8.478,322
8.479,322
8.48,321
8.481,323
8.482,322
8.483,322
8.484,321
8.485,323
8.486,321
8.487,321
8.488,321
8.489,323
8.49,322
8.491,322
8.492,321
8.493,322
8.494,322
8.495,322
8.496,321
8.497,321
8.498,323
8.499,322
8.5,322
8.501,322
8.502,322
8.503,322
8.504,322
8.505,322
8.506,322
8.507,322
8.508,322
8.509,322
8.51,323
8.511,322
8.512,323
8.513,322
8.514,322
8.515,322
8.516,322
8.517,322
8.518,321
8.519,322
8.52,323
8.521,322
8.522,322
8.523,321
8.524,322
8.525,322
8.526,322
8.527,321
8.528,321
8.529,321
8.53,321
8.531,322
8.532,322
8.533,323
8.534,323
8.535,322
8.536,322
8.537,321
8.538,321
8.539,322
8.54,323
8.541,323
8.542,321
8.543,323
8.544,322
8.545,322
8.546,321
8.547,322
8.548,322
8.549,322
8.55,322
8.551,322
8.552,321
8.553,322
8.554,322
8.555,323
8.556,323
8.557,322
8.558,322
8.559,322
8.56,323
8.561,322
8.562,322
8.563,322
8.564,322
8.565,322
8.566,323
8.567,323
8.568,323
8.569,322
8.57,322
8.571,322
8.572,322
8.573,321
8.574,322
8.575,322
8.576,323
8.577,322
8.578,321
8.579,321
8.58,320
8.581,323
8.582,322
8.583,322
8.584,322
8.585,322
8.586,321
8.587,320
8.588,322
8.589,322
8.59,321
8.591,321
8.592,320
8.593,321
8.594,321
8.595,322
8.596,321
8.597,321
8.598,321
8.599,321
8.6,321
8.601,321
8.602,321
8.603,321
8.604,322
8.605,320
8.606,321
8.607,321
8.608,322
8.609,321
8.61,322
8.611,321
8.612,320
8.613,321
8.614,322
8.615,322
8.616,323
8.617,322
8.618,322
8.619,322
8.62,322
8.621,324
8.622,324
8.623,322
8.624,322
8.625,324
8.626,324
8.627,324
8.628,324
8.629,323
8.63,323
8.631,324
8.632,323
8.633,324
8.634,322
8.635,324
8.636,324
8.637,323
8.638,323
8.639,322
8.64,323
8.641,322
8.642,322
8.643,323
8.644,322
8.645,324
8.646,322
8.647,323
8.648,322
8.649,323
8.65,322
8.651,322
8.652,322
8.653,323
8.654,322
8.655,322
8.656,321
8.657,322
8.658,322
8.659,321
8.66,321
8.661,323
8.662,320
8.663,321
8.664,321
8.665,321
8.666,321
8.667,322
8.668,321
8.669,321
8.67,322
8.671,321
8.672,321
8.673,321
8.674,322
8.675,322
8.676,321
8.677,321
8.678,321
8.679,321
8.68,322
8.681,321
8.682,321
8.683,321
8.684,321
8.685,321
8.686,323
8.687,322
8.688,322
8.689,322
8.69,322
8.691,323
8.692,321
8.693,322
8.694,323
8.695,322
8.696,321
8.697,322
8.698,322
8.699,322
8.7,322
8.701,321
8.702,322
8.703,322
8.704,321
8.705,321
8.706,321
8.707,322
8.708,322
8.709,322
8.71,321
8.711,322
8.712,321
8.713,321
8.714,322
8.715,322
8.716,322
8.717,322
8.718,322
8.719,322
8.72,322
8.721,323
8.722,322
8.723,322
8.724,322
8.725,322
8.726,322
8.727,323
8.728,322
8.729,322
8.73,323
8.731,322
8.732,321
8.733,322
8.734,321
8.735,323
8.736,322
8.737,322
8.738,322
8.739,322
8.74,321
8.741,322
8.742,322
8.743,323
8.744,323
8.745,323
8.746,322
8.747,323
8.748,322
8.749,323
8.75,322
8.751,323
8.752,322
8.753,322
8.754,322
8.755,323
8.756,322
8.757,323
8.758,322
8.759,323
8.76,322
8.761,322
8.762,321
8.763,322
8.764,322
8.765,322
8.766,322
8.767,322
8.768,322
8.769,321
8.77,323
8.771,323
8.772,322
8.773,321
8.774,322
8.775,322
8.776,322
8.777,321
8.778,321
8.779,322
8.78,322
8.781,322
8.782,321
8.783,322
8.784,323
8.785,322
8.786,322
8.787,322
8.788,322
8.789,321
8.79,322
8.791,321
8.792,322
8.793,322
8.794,322
8.795,322
8.796,321
8.797,321
8.798,321
8.799,321
8.8,321
8.801,321
8.802,321
8.803,322
8.804,322
8.805,321
8.806,322
8.807,322
8.808,323
8.809,322
8.81,322
8.811,321
8.812,322
8.813,324
8.814,322
8.815,322
8.816,322
8.817,322
8.818,322
8.819,323
8.82,321
8.821,321
8.822,321
8.823,322
8.824,322
8.825,321
8.826,322
8.827,323
8.828,322
8.829,321
8.83,322
8.831,322
8.832,322
8.833,321
8.834,322
8.835,321
8.836,321
8.837,321
8.838,321
8.839,322
8.84,322
8.841,321
8.842,322
8.843,322
8.844,322
8.845,322
8.846,322
8.847,322
8.848,322
8.849,323
8.85,324
8.851,322
8.852,322
8.853,321
8.854,323
8.855,322
8.856,322
8.857,322
8.858,323
8.859,322
8.86,321
8.861,322
8.862,321
8.863,321
8.864,322
8.865,322
8.866,322
8.867,321
8.868,322
8.869,323
8.87,322
8.871,322
8.872,322
8.873,322
8.874,322
8.875,323
8.876,322
8.877,323
8.878,322
8.879,322
8.88,323
8.881,322
8.882,322
8.883,322
8.884,322
8.885,322
8.886,322
8.887,321
8.888,322
8.889,322
8.89,322
8.891,322
8.892,323
8.893,322
8.894,322
8.895,322
8.896,322
8.897,322
8.898,322
8.899,322
8.9,322
8.901,323
8.902,322
8.903,322
8.904,322
8.905,322
8.906,322
8.907,322
8.908,322
8.909,321
8.91,321
8.911,322
8.912,322
8.913,322
8.914,323
8.915,322
8.916,321
8.917,320
8.918,322
8.919,322
8.92,321
8.921,320
8.922,322
8.923,323
8.924,322
8.925,321
8.926,321
8.927,322
8.928,321
8.929,322
8.93,321
8.931,324
8.932,322
8.933,322
8.934,322
8.935,323
8.936,322
8.937,322
8.938,323
8.939,322
8.94,322
8.941,323
8.942,322
8.943,322
8.944,322
8.945,322
8.946,322
8.947,323
8.948,322
8.949,322
8.95,322
8.951,322
8.952,322
8.953,322
8.954,322
8.955,322
8.956,322
8.957,322
8.958,321
8.959,322
8.96,322
8.961,322
8.962,321
8.963,322
8.964,322
8.965,321
8.966,321
8.967,322
8.968,321
8.969,321
8.97,322
8.971,321
8.972,322
8.973,322
8.974,322
8.975,323
8.976,322
8.977,322
8.978,323
8.979,322
8.98,322
8.981,322
8.982,322
8.983,322
8.984,322
8.985,322
8.986,322
8.987,321
8.988,322
8.989,321
8.99,323
8.991,321
8.992,322
8.993,323
8.994,322
8.995,322
8.996,322
8.997,322
8.998,321
8.999,321
9,322
9.001,322
9.002,321
9.003,322
9.004,323
9.005,323
9.006,322
9.007,322
9.008,322
9.009,323
9.01,322
9.011,321
9.012,321
9.013,323
9.014,322
9.015,321
9.016,321
9.017,323
9.018,322
9.019,322
9.02,322
9.021,322
9.022,321
9.023,321
9.024,322
9.025,322
9.026,321
9.027,321
9.028,322
9.029,321
9.03,322
9.031,322
9.032,322
9.033,322
9.034,322
9.035,322
9.036,322
9.037,323
9.038,322
9.039,323
9.04,323
9.041,322
9.042,322
9.043,321
9.044,322
9.045,322
9.046,322
9.047,322
9.048,321
9.049,321
9.05,321
9.051,321
9.052,322
9.053,323
9.054,322
9.055,322
9.056,322
9.057,322
9.058,322
9.059,321
9.06,322
9.061,321
9.062,321
9.063,322
9.064,323
9.065,322
9.066,322
9.067,321
9.068,323
9.069,322
9.07,322
9.071,323
9.072,322
9.073,322
9.074,322
9.075,322
9.076,322
9.077,322
9.078,322
9.079,322
9.08,321
9.081,323
9.082,322
9.083,322
9.084,321
9.085,321
9.086,322
9.087,321
9.088,321
9.089,322
9.09,322
9.091,321
9.092,321
9.093,321
9.094,321
9.095,322
9.096,322
9.097,322
9.098,322
9.099,323
9.1,322
9.101,321
9.102,322
9.103,322
9.104,321
9.105,321
9.106,323
9.107,323
9.108,321
9.109,322
9.11,322
9.111,323
9.112,322
9.113,322
9.114,322
9.115,322
9.116,323
9.117,321
9.118,323
9.119,323
9.12,323
9.121,322
9.122,322
9.123,322
9.124,321
9.125,322
9.126,321
9.127,321
9.128,322
9.129,323
9.13,322
9.131,321
9.132,321
9.133,321
9.134,321
9.135,321
9.136,321
9.137,322
9.138,322
9.139,322
9.14,322
9.141,321
9.142,322
9.143,322
9.144,322
9.145,322
9.146,322
9.147,323
9.148,322
9.149,322
9.15,322
9.151,321
9.152,321
9.153,322
9.154,320
9.155,320
9.156,322
9.157,322
9.158,321
9.159,323
9.16,322
9.161,321
9.162,321
9.163,321
9.164,322
9.165,321
9.166,322
9.167,322
9.168,323
9.169,322
9.17,321
9.171,321
9.172,320
9.173,322
9.174,321
9.175,321
9.176,322
9.177,323
9.178,322
9.179,321
9.18,321
9.181,322
9.182,322
9.183,322
9.184,322
9.185,324
9.186,324
9.187,322
9.188,322
9.189,322
9.19,322
9.191,322
9.192,322
9.193,322
9.194,322
9.195,322
9.196,321
9.197,321
9.198,322
9.199,322
9.2,322
9.201,322
9.202,322
9.203,322
9.204,321
9.205,323
9.206,322
9.207,321
9.208,322
9.209,321
9.21,321
9.211,321
9.212,322
9.213,322
9.214,322
9.215,322
9.216,322
9.217,321
9.218,322
9.219,322
9.22,322
9.221,323
9.222,324
9.223,323
9.224,323
9.225,323
9.226,323
9.227,322
9.228,322
9.229,322
9.23,321
9.231,321
9.232,322
9.233,322
9.234,322
9.235,322
9.236,321
9.237,322
9.238,322
9.239,323
9.24,322
9.241,322
9.242,322
9.243,322
9.244,322
9.245,323
9.246,323
9.247,323
9.248,322
9.249,321
9.25,322
9.251,321
9.252,322
9.253,320
9.254,322
9.255,322
9.256,320
9.257,321
9.258,321
9.259,321
9.26,322
9.261,321
9.262,321
9.263,322
9.264,322
9.265,322
9.266,322
9.267,322
9.268,322
9.269,322
9.27,322
9.271,322
9.272,321
9.273,322
9.274,323
9.275,322
9.276,322
9.277,323
9.278,323
9.279,322
9.28,322
9.281,321
9.282,322
9.283,322
9.284,321
9.285,322
9.286,321
9.287,323
9.288,321
9.289,321
9.29,321
9.291,321
9.292,321
9.293,320
9.294,321
9.295,323
9.296,322
9.297,322
9.298,321
9.299,322
9.3,322
9.301,323
9.302,322
9.303,322
9.304,322
9.305,322
9.306,322
9.307,323
9.308,323
9.309,323
9.31,323
9.311,322
9.312,324
9.313,323
9.314,323
9.315,324
9.316,323
9.317,323
9.318,324
9.319,323
9.32,324
9.321,323
9.322,322
9.323,323
9.324,322
9.325,322
9.326,322
9.327,323
9.328,322
9.329,322
9.33,324
9.331,323
9.332,322
9.333,322
9.334,321
9.335,322
9.336,321
9.337,321
9.338,321
9.339,322
9.34,321
9.341,320
9.342,320
9.343,321
9.344,321
9.345,321
9.346,322
9.347,321
9.348,322
9.349,321
9.35,321
9.351,323
9.352,322
9.353,323
9.354,323
9.355,322
9.356,322
9.357,323
9.358,323
9.359,323
9.36,321
9.361,323
9.362,321
9.363,321
9.364,322
9.365,324
9.366,324
9.367,322
9.368,322
9.369,323
9.37,321
9.371,321
9.372,321
9.373,321
9.374,322
9.375,322
9.376,322
9.377,322
9.378,321
9.379,321
9.38,321
9.381,323
9.382,321
9.383,320
9.384,321
9.385,322
9.386,321
9.387,320
9.388,321
9.389,322
9.39,321
9.391,320
9.392,322
9.393,324
9.394,322
9.395,323
9.396,322
9.397,322
9.398,322
9.399,320
9.4,322
9.401,322
9.402,322
9.403,323
9.404,323
9.405,323
9.406,324
9.407,323
9.408,323
9.409,321
9.41,322
9.411,321
9.412,323
9.413,323
9.414,323
9.415,322
9.416,322
9.417,321
9.418,322
9.419,322
9.42,321
9.421,321
9.422,320
9.423,321
9.424,321
9.425,321
9.426,322
9.427,322
9.428,322
9.429,323
9.43,324
9.431,324
9.432,324
9.433,323
9.434,322
9.435,323
9.436,323
9.437,322
9.438,322
9.439,321
9.44,322
9.441,322
9.442,323
9.443,322
9.444,323
9.445,321
9.446,320
9.447,322
9.448,320
9.449,321
9.45,320
9.451,320
9.452,320
9.453,322
9.454,323
9.455,322
9.456,323
9.457,322
9.458,322
9.459,322
9.46,322
9.461,323
9.462,321
9.463,322
9.464,320
9.465,320
9.466,321
9.467,321
9.468,322
9.469,322
9.47,322
9.471,323
9.472,322
9.473,321
9.474,322
9.475,323
9.476,322
9.477,322
9.478,322
9.479,323
9.48,323
9.481,322
9.482,323
9.483,323
9.484,322
9.485,324
9.486,323
9.487,322
9.488,323
9.489,322
9.49,321
9.491,322
9.492,321
9.493,321
9.494,322
9.495,323
9.496,322
9.497,322
9.498,322
9.499,322
9.5,320
9.501,322
9.502,322
9.503,323
9.504,322
9.505,323
9.506,324
9.507,322
9.508,323
9.509,324
9.51,323
9.511,322
9.512,322
9.513,324
9.514,323
9.515,322
9.516,324
9.517,325
9.518,324
9.519,326
9.52,324
9.521,324
9.522,322
9.523,322
9.524,323
9.525,322
9.526,323
9.527,322
9.528,323
9.529,323
9.53,323
9.531,322
9.532,322
9.533,322
9.534,320
9.535,320
9.536,319
9.537,320
9.538,320
9.539,321
9.54,319
9.541,320
9.542,320
9.543,319
9.544,321
9.545,321
9.546,320
9.547,321
9.548,321
9.549,323
9.55,321
9.551,321
9.552,322
9.553,322
9.554,322
9.555,321
9.556,320
9.557,321
9.558,320
9.559,320
9.56,321
9.561,322
9.562,321
9.563,320
9.564,320
9.565,320
9.566,320
9.567,320
9.568,320
9.569,320
9.57,320
9.571,321
9.572,321
9.573,322
9.574,322
9.575,322
9.576,321
9.577,322
9.578,322
9.579,322
9.58,321
9.581,322
9.582,323
9.583,322
9.584,322
9.585,323
9.586,322
9.587,323
9.588,322
9.589,324
9.59,323
9.591,324
9.592,322
9.593,324
9.594,324
9.595,322
9.596,322
9.597,321
9.598,320
9.599,321
9.6,321
9.601,321
9.602,322
9.603,322
9.604,323
9.605,323
9.606,324
9.607,323
9.608,323
9.609,323
9.61,324
9.611,322
9.612,322
9.613,324
9.614,325
9.615,323
9.616,323
9.617,324
9.618,325
9.619,325
9.62,323
9.621,324
9.622,322
9.623,321
9.624,320
9.625,321
9.626,321
9.627,321
9.628,321
9.629,320
9.63,320
9.631,320
9.632,319
9.633,319
9.634,320
9.635,320
9.636,321
9.637,320
9.638,320
9.639,318
9.64,320
9.641,320
9.642,323
9.643,324
9.644,324
9.645,325
9.646,324
9.647,324
9.648,324
9.649,323
9.65,324
9.651,323
9.652,323
9.653,322
9.654,322
9.655,323
9.656,323
9.657,323
9.658,322
9.659,323
9.66,321
9.661,321
9.662,320
9.663,323
9.664,322
9.665,322
9.666,323
9.667,322
9.668,320
9.669,321
9.67,322
9.671,321
9.672,321
9.673,322
9.674,324
9.675,324
9.676,323
9.677,322
9.678,322
9.679,320
9.68,322
9.681,322
9.682,322
9.683,323
9.684,323
9.685,322
9.686,323
9.687,322
9.688,321
9.689,320
9.69,320
9.691,320
9.692,321
9.693,321
9.694,320
9.695,318
9.696,320
9.697,321
9.698,322
9.699,323
9.7,324
9.701,325
9.702,324
9.703,325
9.704,323
9.705,322
9.706,322
9.707,321
9.708,323
9.709,323
9.71,321
9.711,321
9.712,320
9.713,320
9.714,320
9.715,321
9.716,321
9.717,321
9.718,322
9.719,323
9.72,322
9.721,322
9.722,321
9.723,322
9.724,322
9.725,322
9.726,321
9.727,322
9.728,323
9.729,323
9.73,322
9.731,322
9.732,322
9.733,324
9.734,322
9.735,320
9.736,322
9.737,322
9.738,321
9.739,321
9.74,322
9.741,322
9.742,321
9.743,323
9.744,322
9.745,325
9.746,324
9.747,325
9.748,324
9.749,324
9.75,322
9.751,322
9.752,322
9.753,321
9.754,321
9.755,322
9.756,322
9.757,322
9.758,321
9.759,320
9.76,322
9.761,321
9.762,321
9.763,320
9.764,320
9.765,320
9.766,320
9.767,322
9.768,323
9.769,323
9.77,325
9.771,325
9.772,326
9.773,325
9.774,325
9.775,324
9.776,323
9.777,322
9.778,322
9.779,321
9.78,321
9.781,320
9.782,320
9.783,318
9.784,316
9.785,319
9.786,318
9.787,320
9.788,320
9.789,321
9.79,321
9.791,322
9.792,322
9.793,322
9.794,323
9.795,323
9.796,322
9.797,322
9.798,321
9.799,320
9.8,322
9.801,322
9.802,322
9.803,322
9.804,322
9.805,322
9.806,321
9.807,322
9.808,320
9.809,321
9.81,321
9.811,322
9.812,322
9.813,322
9.814,322
9.815,322
9.816,323
9.817,321
9.818,321
9.819,322
9.82,323
9.821,324
9.822,325
9.823,324
9.824,323
9.825,323
9.826,324
9.827,323
9.828,321
9.829,321
9.83,323
9.831,322
9.832,321
9.833,322
9.834,322
9.835,322
9.836,320
9.837,320
9.838,320
9.839,321
9.84,321
9.841,322
9.842,322
9.843,323
9.844,323
9.845,324
9.846,322
9.847,322
9.848,323
9.849,323
9.85,322
9.851,323
9.852,322
9.853,321
9.854,321
9.855,321
9.856,320
9.857,321
9.858,320
9.859,321
9.86,321
9.861,322
9.862,322
9.863,323
9.864,321
9.865,322
9.866,322
9.867,323
9.868,321
9.869,324
9.87,324
9.871,325
9.872,325
9.873,325
9.874,323
9.875,321
9.876,320
9.877,319
9.878,319
9.879,319
9.88,320
9.881,322
9.882,322
9.883,322
9.884,322
9.885,322
9.886,321
9.887,320
9.888,318
9.889,319
9.89,318
9.891,321
9.892,322
9.893,322
9.894,322
9.895,323
9.896,322
9.897,323
9.898,322
9.899,321
9.9,320
9.901,323
9.902,322
9.903,322
9.904,322
9.905,324
9.906,324
9.907,323
9.908,322
9.909,322
9.91,322
9.911,322
9.912,322
9.913,324
9.914,324
9.915,323
9.916,323
9.917,322
9.918,323
9.919,323
9.92,322
9.921,323
9.922,323
9.923,322
9.924,324
9.925,323
9.926,323
9.927,325
9.928,324
9.929,323
9.93,323
9.931,322
9.932,322
9.933,324
9.934,321
9.935,320
9.936,320
9.937,320
9.938,321
9.939,321
9.94,321
9.941,320
9.942,320
9.943,320
9.944,320
9.945,321
9.946,320
9.947,323
9.948,323
9.949,322
9.95,323
9.951,323
9.952,322
9.953,321
9.954,320
9.955,319
9.956,320
9.957,321
9.958,322
9.959,324
9.96,326
9.961,325
9.962,325
9.963,324
9.964,323
9.965,322
9.966,320
9.967,320
9.968,319
9.969,318
9.97,319
9.971,320
9.972,321
9.973,322
9.974,323
9.975,323
9.976,323
9.977,322
9.978,321
9.979,320
9.98,321
9.981,321
9.982,320
9.983,320
9.984,321
9.985,324
9.986,324
9.987,323
9.988,321
9.989,320
9.99,320
9.991,319
9.992,318
9.993,319
9.994,319
9.995,320
9.996,320
9.997,320
9.998,320
9.999,322
10,323
10.001,325
10.002,325
10.003,326
10.004,325
10.005,325
10.006,324
10.007,323
10.008,324
10.009,325
10.01,324
10.011,325
10.012,325
10.013,324
10.014,324
10.015,325
10.016,323
10.017,322
10.018,322
10.019,321
10.02,320
10.021,318
10.022,319
10.023,320
10.024,321
10.025,320
10.026,323
10.027,323
10.028,323
10.029,323
10.03,323
10.031,325
10.032,324
10.033,322
10.034,322
10.035,322
10.036,323
10.037,322
10.038,324
10.039,322
10.04,320
10.041,321
10.042,320
10.043,320
10.044,320
10.045,321
10.046,321
10.047,320
10.048,320
10.049,321
10.05,320
10.051,322
10.052,324
10.053,324
10.054,324
10.055,323
10.056,324
10.057,323
10.058,324
10.059,322
10.06,322
10.061,322
10.062,321
10.063,319
10.064,318
10.065,318
10.066,320
10.067,319
10.068,321
10.069,321
10.07,322
10.071,322
10.072,322
10.073,320
10.074,320
10.075,320
10.076,319
10.077,320
10.078,321
10.079,322
10.08,323
10.081,324
10.082,324
10.083,324
10.084,324
10.085,324
10.086,324
10.087,323
10.088,322
10.089,323
10.09,324
10.091,323
10.092,323
10.093,324
10.094,321
10.095,320
10.096,320
10.097,319
10.098,318
10.099,319
10.1,320
10.101,321
10.102,322
10.103,323
10.104,322
10.105,323
10.106,322
10.107,321
10.108,320
10.109,321
10.11,319
10.111,320
10.112,322
10.113,324
10.114,325
10.115,326
10.116,327
10.117,325
10.118,323
10.119,323
10.12,322
10.121,322
10.122,321
10.123,320
10.124,320
10.125,320
10.126,321
10.127,321
10.128,320
10.129,320
10.13,320
10.131,321
10.132,323
10.133,323
10.134,323
10.135,324
10.136,324
10.137,323
10.138,324
10.139,322
10.14,322
10.141,322
10.142,323
10.143,324
10.144,324
10.145,324
10.146,325
10.147,324
10.148,322
10.149,324
10.15,322
10.151,321
10.152,319
10.153,316
10.154,318
10.155,318
10.156,320
10.157,322
10.158,323
10.159,322
10.16,323
10.161,322
10.162,322
10.163,321
10.164,320
10.165,320
10.166,320
10.167,320
10.168,322
10.169,322
10.17,324
10.171,326
10.172,326
10.173,328
10.174,326
10.175,326
10.176,323
10.177,322
10.178,321
10.179,320
10.18,319
10.181,318
10.182,319
10.183,321
10.184,322
10.185,323
10.186,323
10.187,324
10.188,323
10.189,322
10.19,324
10.191,323
10.192,321
10.193,323
10.194,323
10.195,321
10.196,320
10.197,318
10.198,318
10.199,319
10.2,320
10.201,323
10.202,322
10.203,322
10.204,320
10.205,321
10.206,322
10.207,324
10.208,323
10.209,322
10.21,322
10.211,324
10.212,324
10.213,322
10.214,323
10.215,325
10.216,326
10.217,324
10.218,325
10.219,323
10.22,322
10.221,320
10.222,318
10.223,316
10.224,317
10.225,319
10.226,321
10.227,322
10.228,323
10.229,323
10.23,324
10.231,325
10.232,324
10.233,323
10.234,323
10.235,322
10.236,323
10.237,323
10.238,322
10.239,323
10.24,321
10.241,320
10.242,321
10.243,323
10.244,324
10.245,324
10.246,323
10.247,324
10.248,322
10.249,321
10.25,320
10.251,319
10.252,319
10.253,320
10.254,321
10.255,323
10.256,323
10.257,325
10.258,324
10.259,322
10.26,320
10.261,321
10.262,322
10.263,323
10.264,323
10.265,326
10.266,325
10.267,323
10.268,322
10.269,322
10.27,320
10.271,320
10.272,318
10.273,318
10.274,321
10.275,320
10.276,320
10.277,319
10.278,318
10.279,320
10.28,320
10.281,320
10.282,320
10.283,321
10.284,321
10.285,322
10.286,322
10.287,320
10.288,322
10.289,322
10.29,323
10.291,324
10.292,323
10.293,324
10.294,323
10.295,323
10.296,323
10.297,322
10.298,321
10.299,320
10.3,321
10.301,321
10.302,321
10.303,321
10.304,322
10.305,325
10.306,325
10.307,325
10.308,323
10.309,323
10.31,323
10.311,322
10.312,323
10.313,321
10.314,320
10.315,321
10.316,323
10.317,323
10.318,324
10.319,324
10.32,323
10.321,323
10.322,321
10.323,320
10.324,318
10.325,319
10.326,318
10.327,320
10.328,320
10.329,321
10.33,323
10.331,323
10.332,324
10.333,325
10.334,323
10.335,324
10.336,323
10.337,324
10.338,321
10.339,321
10.34,320
10.341,319
10.342,321
10.343,320
10.344,320
10.345,320
10.346,321
10.347,321
10.348,322
10.349,322
10.35,322
10.351,321
10.352,321
10.353,320
10.354,320
10.355,322
10.356,322
10.357,322
10.358,324
10.359,323
10.36,322
10.361,322
10.362,322
10.363,323
10.364,322
10.365,322
10.366,322
10.367,321
10.368,321
10.369,321
10.37,321
10.371,322
10.372,322
10.373,323
10.374,325
10.375,327
10.376,328
10.377,329
10.378,329
10.379,328
10.38,324
10.381,322
10.382,319
10.383,317
10.384,315
10.385,317
10.386,318
10.387,321
10.388,321
10.389,320
10.39,320
10.391,319
10.392,321
10.393,320
10.394,321
10.395,322
10.396,324
10.397,324
10.398,326
10.399,326
10.4,325
10.401,325
10.402,325
10.403,325
10.404,323
10.405,324
10.406,322
10.407,318
10.408,319
10.409,321
10.41,321
10.411,320
10.412,321
10.413,319
10.414,316
10.415,318
10.416,318
10.417,319
10.418,320
10.419,324
10.42,323
10.421,323
10.422,323
10.423,323
10.424,322
10.425,322
10.426,323
10.427,322
10.428,323
10.429,325
10.43,324
10.431,323
10.432,322
10.433,320
10.434,319
10.435,318
10.436,319
10.437,320
10.438,322
10.439,321
10.44,323
10.441,324
10.442,323
10.443,323
10.444,324
10.445,323
10.446,322
10.447,323
10.448,322
10.449,323
10.45,324
10.451,324
10.452,325
10.453,325
10.454,320
10.455,318
10.456,317
10.457,318
10.458,318
10.459,319
10.46,319
10.461,320
10.462,320
10.463,321
10.464,323
10.465,323
10.466,323
10.467,324
10.468,326
10.469,328
10.47,329
10.471,329
10.472,328
10.473,327
10.474,325
10.475,323
10.476,321
10.477,320
10.478,318
10.479,318
10.48,319
10.481,321
10.482,321
10.483,323
10.484,321
10.485,322
10.486,322
10.487,320
10.488,320
10.489,319
10.49,318
10.491,317
10.492,320
10.493,324
10.494,327
10.495,327
10.496,327
10.497,326
10.498,326
10.499,323
10.5,322
10.501,319
10.502,317
10.503,317
10.504,318
10.505,318
10.506,320
10.507,321
10.508,322
10.509,324
10.51,323
10.511,321
10.512,320
10.513,319
10.514,319
10.515,318
10.516,320
10.517,321
10.518,323
10.519,324
10.52,326
10.521,326
10.522,325
10.523,325
10.524,322
10.525,320
10.526,321
10.527,322
10.528,322
10.529,322
10.53,322
10.531,323
10.532,321
10.533,322
10.534,321
10.535,320
10.536,319
10.537,320
10.538,322
10.539,324
10.54,325
10.541,329
10.542,328
10.543,329
10.544,327
10.545,326
10.546,323
10.547,320
10.548,317
10.549,316
10.55,316
10.551,322
10.552,321
10.553,322
10.554,321
10.555,321
10.556,319
10.557,317
10.558,318
10.559,320
10.56,320
10.561,321
10.562,321
10.563,324
10.564,323
10.565,322
10.566,324
10.567,323
10.568,324
10.569,325
10.57,325
10.571,325
10.572,323
10.573,322
10.574,321
10.575,318
10.576,318
10.577,319
10.578,320
10.579,321
10.58,321
10.581,321
10.582,321
10.583,320
10.584,320
10.585,321
10.586,319
10.587,319
10.588,319
10.589,320
10.59,322
10.591,323
10.592,325
10.593,325
10.594,324
10.595,323
10.596,323
10.597,322
10.598,321
10.599,320
10.6,322
10.601,323
10.602,322
10.603,320
10.604,320
10.605,321
10.606,322
10.607,320
10.608,322
10.609,323
10.61,323
10.611,323
10.612,324
10.613,326
10.614,328
10.615,329
10.616,328
10.617,327
10.618,325
10.619,324
10.62,324
10.621,322
10.622,319
10.623,320
10.624,321
10.625,321
10.626,322
10.627,321
10.628,320
10.629,317
10.63,316
10.631,317
10.632,319
10.633,320
10.634,321
10.635,321
10.636,321
10.637,323
10.638,322
10.639,322
10.64,320
10.641,321
10.642,322
10.643,321
10.644,320
10.645,322
10.646,324
10.647,326
10.648,326
10.649,325
10.65,326
10.651,324
10.652,324
10.653,323
10.654,322
10.655,321
10.656,318
10.657,319
10.658,320
10.659,321
10.66,320
10.661,322
10.662,322
10.663,324
10.664,322
10.665,321
10.666,321
10.667,320
10.668,321
10.669,320
10.67,320
10.671,320
10.672,321
10.673,321
10.674,321
10.675,321
10.676,321
10.677,320
10.678,321
10.679,320
10.68,321
10.681,320
10.682,320
10.683,322
10.684,322
10.685,324
10.686,324
10.687,325
10.688,323
10.689,324
10.69,323
10.691,323
10.692,322
10.693,322
10.694,323
10.695,321
10.696,322
10.697,322
10.698,322
10.699,323
10.7,322
10.701,323
10.702,324
10.703,324
10.704,322
10.705,325
10.706,326
10.707,328
10.708,328
10.709,325
10.71,325
10.711,325
10.712,323
10.713,321
10.714,319
10.715,319
10.716,319
10.717,321
10.718,322
10.719,323
10.72,322
10.721,322
10.722,321
10.723,322
10.724,321
10.725,320
10.726,322
10.727,322
10.728,321
10.729,322
10.73,322
10.731,323
10.732,324
10.733,324
10.734,325
10.735,325
10.736,323
10.737,322
10.738,322
10.739,321
10.74,322
10.741,322
10.742,322
10.743,320
10.744,319
10.745,317
10.746,316
10.747,319
10.748,320
10.749,321
10.75,321
10.751,320
10.752,322
10.753,322
10.754,323
10.755,320
10.756,321
10.757,322
10.758,324
10.759,323
10.76,324
10.761,323
10.762,324
10.763,322
10.764,323
10.765,322
10.766,320
10.767,318
10.768,318
10.769,321
10.77,320
10.771,322
10.772,322
10.773,322
10.774,323
10.775,321
10.776,321
10.777,320
10.778,321
10.779,321
10.78,322
10.781,323
10.782,325
10.783,326
10.784,327
10.785,327
10.786,325
10.787,324
10.788,322
10.789,322
10.79,322
10.791,321
10.792,318
10.793,321
10.794,322
10.795,322
10.796,322
10.797,322
10.798,322
10.799,321
10.8,320
10.801,319
10.802,319
10.803,320
10.804,320
10.805,323
10.806,321
10.807,322
10.808,320
10.809,321
10.81,320
10.811,320
10.812,319
10.813,320
10.814,323
10.815,324
10.816,323
10.817,324
10.818,323
10.819,322
10.82,323
10.821,323
10.822,322
10.823,321
10.824,322
10.825,323
10.826,322
10.827,322
10.828,323
10.829,324
10.83,322
10.831,322
10.832,324
10.833,325
10.834,325
10.835,325
10.836,325
10.837,326
10.838,324
10.839,322
10.84,320
10.841,317
10.842,319
10.843,321
10.844,321
10.845,320
10.846,318
10.847,317
10.848,317
10.849,319
10.85,320
10.851,320
10.852,321
10.853,323
10.854,323
10.855,325
10.856,326
10.857,327
10.858,324
10.859,324
10.86,324
10.861,325
10.862,324
10.863,323
10.864,320
10.865,321
10.866,320
10.867,321
10.868,320
10.869,321
10.87,319
10.871,319
10.872,321
10.873,321
10.874,320
10.875,322
10.876,323
10.877,324
10.878,323
10.879,324
10.88,325
10.881,322
10.882,322
10.883,321
10.884,322
10.885,321
10.886,321
10.887,321
10.888,322
10.889,320
10.89,321
10.891,322
10.892,320
10.893,321
10.894,322
10.895,323
10.896,324
10.897,323
10.898,324
10.899,325
10.9,322
10.901,323
10.902,322
10.903,321
10.904,321
10.905,321
10.906,321
10.907,322
10.908,323
10.909,326
10.91,325
10.911,323
10.912,323
10.913,323
10.914,322
10.915,323
10.916,321
10.917,319
10.918,320
10.919,321
10.92,320
10.921,320
10.922,319
10.923,321
10.924,321
10.925,323
10.926,324
10.927,323
10.928,323
10.929,325
10.93,324
10.931,323
10.932,322
10.933,321
